#Frame0 #Time(ms) 155
Sensor 0
Channel EMG,0,0,0,0,0,0,0,0,0,0,0,0,0,0,0,0,0,0,0,0,0,0,0,0,0,0,0,0,0,0,0,0,0,0,0,0,0,0,0,0,0,0,0,0,0,0,0,0,0,0,0,0
Channel ACC,0,0,0,0
Channel ACC,0,0,0,0
Channel ACC,0,0,0,0

#Frame1 #Time(ms) 171
Sensor 0
Channel EMG,0,0,0,0,0,0,0,0,0,0,0,0,0,0,0,0,0,0,0,0,0,0,0,0,0,0,0,0,0,0,0,0,0,0,0,0,0,0,0,0,0,0,0,0,0,0,0,0,0,0,0,0
Channel ACC,0,0,0,0
Channel ACC,0,0,0,0
Channel ACC,0,0,0,0

#Frame2 #Time(ms) 198
Sensor 0
Channel EMG,0,0,0,0,0,0,0,0,0,0,0,0,0,0,0,0,0,0,0,0,0,0,0,0,0,0,0,0,0,0,0,0,0,0,0,0,0,0,0,0,0,0,0,0,0,0,0,0,0,0,0,0
Channel ACC,0,0,0,0
Channel ACC,0,0,0,0
Channel ACC,0,0,0,0

#Frame3 #Time(ms) 225
Sensor 0
Channel EMG,0,0,0,0,0,0,0,0,0,0,0,0,0,0,0,0,0,0,0,0,0,0,0,0,0,0,0,0,0,0,0,0,0,0,0,0,0,0,0,0,0,0,0,0,0,0,0,0,0,0,0,0
Channel ACC,0,0,0,0
Channel ACC,0,0,0,0
Channel ACC,0,0,0,0

#Frame4 #Time(ms) 252
Sensor 0
Channel EMG,0,0,0,0,0,0,0,0,0,0,0,0,0,0,0,0,0,0,0,0,0,0,0,0,0,0,0,0,0,0,0,0,0,0,0,0,0,0,0,0,0,0,0,0,0,0,0,0,0,0,0,0
Channel ACC,0,0,0,0
Channel ACC,0,0,0,0
Channel ACC,0,0,0,0

#Frame5 #Time(ms) 279
Sensor 0
Channel EMG,0,0,0,0,0,0,0,0,0,0,0,0,0,0,0,0,0,0,0,0,0,0,0,0,0,0,0,0,0,0,0,0,0,0,0,0,0,0,0,0,0,0,0,0,0,0,0,0,0,0,0,0
Channel ACC,0,0,0,0
Channel ACC,0,0,0,0
Channel ACC,0,0,0,0

#Frame6 #Time(ms) 306
Sensor 0
Channel EMG,0,0,0,0,0,0,0,0,0,0,0,0,0,0,0,0,0,0,0,0,0,0,0,0,0,0,0,0,0,0,0,0,0,0,0,0,0,0,0,0,0,0,0,0,0,0,0,0,0,0,0,0
Channel ACC,0,0,0,0
Channel ACC,0,0,0,0
Channel ACC,0,0,0,0

#Frame7 #Time(ms) 333
Sensor 0
Channel EMG,0,0,0,0,0,0,0,0,0,0,0,0,0,0,0,0,0,0,0,0,0,0,0,0,0,0,0,0,0,0,0,0,0,0,0,0,0,0,0,0,0,0,0,0,0,0,0,0,0,0,0,0
Channel ACC,0,0,0,0
Channel ACC,0,0,0,0
Channel ACC,0,0,0,0

#Frame8 #Time(ms) 361
Sensor 0
Channel EMG,0,0,0,0,0,0,0,0,0,0,0,0,0,0,0,0,0,0,0,0,0,0,0,0,0,0,0,0,0,0,0,0,0,0,0,0,0,0,0,0,0,0,0,0,0,0,0,0,0,0,0,0
Channel ACC,0,0,0,0
Channel ACC,0,0,0,0
Channel ACC,0,0,0,0

#Frame9 #Time(ms) 388
Sensor 0
Channel EMG,0.000503547722590982,0.00184634164950027,0.00184634164950027,0.00184634164950027,0.00218204013122759,0.00218204013122759,0.00218204013122759,0.00251773861295491,0.00251773861295491,0.00285343709468223,0.00335698481727321,0.00318913557640955,0.00318913557640955,0.00285343709468223,0.00285343709468223,0.00318913557640955,0.00318913557640955,0.00302128633554589,0.00302128633554589,0.00352483405813687,0.00369268329900053,0.00352483405813687,0.00386053253986419,0.00386053253986419,0.00386053253986419,0.00386053253986419,0.00352483405813687,0.00352483405813687,0.00352483405813687,0.00352483405813687,0.00352483405813687,0.00369268329900053,0.00352483405813687,0.00302128633554589,0.00285343709468223,0.00318913557640955,0.00352483405813687,0.00386053253986419,0.00386053253986419,0.00386053253986419,0.00419623102159152,0.00436408026245518,0.00436408026245518,0.00419623102159152,0.00436408026245518,0.00386053253986419,0.00386053253986419,0.00386053253986419,0.00386053253986419,0.00386053253986419,0.00486762798504616,0.00520332646677348
Channel ACC,-0.71875,-0.71875,-0.71875,-0.71875
Channel ACC,0.65625,0.65625,0.625,0.625
Channel ACC,0.09375,0.125,0.125,0.09375

#Frame10 #Time(ms) 415
Sensor 0
Channel EMG,0.00486762798504616,0.00453192950331884,0.00419623102159152,0.00386053253986419,0.00453192950331884,0.00453192950331884,0.00486762798504616,0.00486762798504616,0.00453192950331884,0.00453192950331884,0.00453192950331884,0.00419623102159152,0.00453192950331884,0.00453192950331884,0.00453192950331884,0.00453192950331884,0.00436408026245518,0.00419623102159152,0.00386053253986419,0.00453192950331884,0.00486762798504616,0.00486762798504616,0.00453192950331884,0.00453192950331884,0.00453192950331884,0.0046997787441825,0.00486762798504616,0.00453192950331884,0.00453192950331884,0.00453192950331884,0.00453192950331884,0.00520332646677348,0.00503547722590982,0.00486762798504616,0.00503547722590982,0.00486762798504616,0.00453192950331884,0.00503547722590982,0.00520332646677348,0.00520332646677348,0.00503547722590982,0.00453192950331884,0.00486762798504616,0.00503547722590982,0.00503547722590982,0.00453192950331884,0.00453192950331884,0.00453192950331884,0.00453192950331884,0.0046997787441825,0.00520332646677348,0.00503547722590982
Channel ACC,-0.71875,-0.71875,-0.6875,-0.6875
Channel ACC,0.625,0.625,0.625,0.625
Channel ACC,0.09375,0.09375,0.09375,0.09375

#Frame11 #Time(ms) 442
Sensor 0
Channel EMG,0.00503547722590982,0.00520332646677348,0.00520332646677348,0.00453192950331884,0.00453192950331884,0.00486762798504616,0.00520332646677348,0.00520332646677348,0.00520332646677348,0.00503547722590982,0.00486762798504616,0.00520332646677348,0.00520332646677348,0.00503547722590982,0.00503547722590982,0.00520332646677348,0.00570687418936446,0.00587472343022812,0.00587472343022812,0.0055390249485008,0.00520332646677348,0.0055390249485008,0.00520332646677348,0.00520332646677348,0.00520332646677348,0.00520332646677348,0.00520332646677348,0.0055390249485008,0.00587472343022812,0.00570687418936446,0.00587472343022812,0.0055390249485008,0.0055390249485008,0.00570687418936446,0.0055390249485008,0.0055390249485008,0.00587472343022812,0.00587472343022812,0.00621042191195544,0.00621042191195544,0.00621042191195544,0.00621042191195544,0.00621042191195544,0.00621042191195544,0.00621042191195544,0.00587472343022812,0.00587472343022812,0.0055390249485008,0.0063782711528191,0.00587472343022812,0.00587472343022812,0.00587472343022812
Channel ACC,-0.6875,-0.6875,-0.71875,-0.71875
Channel ACC,0.59375,0.625,0.625,0.65625
Channel ACC,0.125,0.125,0.125,0.125

#Frame12 #Time(ms) 469
Sensor 0
Channel EMG,0.00587472343022812,0.00587472343022812,0.00587472343022812,0.00621042191195544,0.00621042191195544,0.00621042191195544,0.00621042191195544,0.0063782711528191,0.00621042191195544,0.00621042191195544,0.00604257267109178,0.00621042191195544,0.0063782711528191,0.00654612039368276,0.00654612039368276,0.00654612039368276,0.00654612039368276,0.00654612039368276,0.00654612039368276,0.00654612039368276,0.00654612039368276,0.00621042191195544,0.00621042191195544,0.00587472343022812,0.00587472343022812,0.00587472343022812,0.00520332646677348,0.00570687418936446,0.00587472343022812,0.00621042191195544,0.00587472343022812,0.0055390249485008,0.00621042191195544,0.00704966811627375,0.00654612039368276,0.00587472343022812,0.00621042191195544,0.0063782711528191,0.00654612039368276,0.00587472343022812,0.00621042191195544,0.0063782711528191,0.00654612039368276,0.00621042191195544,0.00587472343022812,0.00587472343022812,0.00621042191195544,0.00587472343022812,0.00587472343022812,0.0055390249485008,0.00587472343022812,0.00587472343022812
Channel ACC,-0.71875,-0.71875,-0.71875,-0.71875
Channel ACC,0.65625,0.65625,0.65625,0.6875
Channel ACC,0.125,0.15625,0.15625,0.125

#Frame13 #Time(ms) 496
Sensor 0
Channel EMG,0.00604257267109178,0.00621042191195544,0.00621042191195544,0.00621042191195544,0.00587472343022812,0.00621042191195544,0.00621042191195544,0.00587472343022812,0.00587472343022812,0.00604257267109178,0.00621042191195544,0.00654612039368276,0.00621042191195544,0.00587472343022812,0.00570687418936446,0.00587472343022812,0.00621042191195544,0.00587472343022812,0.00621042191195544,0.00654612039368276,0.00688181887541009,0.00688181887541009,0.0063782711528191,0.00587472343022812,0.00621042191195544,0.0063782711528191,0.00621042191195544,0.00621042191195544,0.00654612039368276,0.00654612039368276,0.00654612039368276,0.00621042191195544,0.00654612039368276,0.00721751735713741,0.00654612039368276,0.00587472343022812,0.00520332646677348,0.00587472343022812,0.00654612039368276,0.00688181887541009,0.00654612039368276,0.00654612039368276,0.00688181887541009,0.00704966811627375,0.00688181887541009,0.00688181887541009,0.00688181887541009,0.00654612039368276,0.00654612039368276,0.00654612039368276,0.00688181887541009,0.00654612039368276
Channel ACC,-0.71875,-0.71875,-0.71875,-0.71875
Channel ACC,0.6875,0.6875,0.6875,0.6875
Channel ACC,0.125,0.125,0.125,0.09375

#Frame14 #Time(ms) 523
Sensor 0
Channel EMG,0.00654612039368276,0.00621042191195544,0.00587472343022812,0.00570687418936446,0.00537117570763714,0.00520332646677348,0.0055390249485008,0.00621042191195544,0.00587472343022812,0.00621042191195544,0.00654612039368276,0.0063782711528191,0.00654612039368276,0.00654612039368276,0.00654612039368276,0.00654612039368276,0.00654612039368276,0.00587472343022812,0.00621042191195544,0.00621042191195544,0.00654612039368276,0.00688181887541009,0.00704966811627375,0.00721751735713741,0.00721751735713741,0.00688181887541009,0.00654612039368276,0.00654612039368276,0.0063782711528191,0.00621042191195544,0.00587472343022812,0.00587472343022812,0.00587472343022812,0.00587472343022812,0.0055390249485008,0.00587472343022812,0.00587472343022812,0.00587472343022812,0.0063782711528191,0.00621042191195544,0.00604257267109178,0.00570687418936446,0.00587472343022812,0.00621042191195544,0.00654612039368276,0.00654612039368276,0.00654612039368276,0.00654612039368276,0.00654612039368276,0.00621042191195544,0.0063782711528191,0.0063782711528191
Channel ACC,-0.71875,-0.71875,-0.71875,-0.71875
Channel ACC,0.6875,0.6875,0.6875,0.6875
Channel ACC,0.125,0.125,0.125,0.125

#Frame15 #Time(ms) 550
Sensor 0
Channel EMG,0.00621042191195544,0.00621042191195544,0.00587472343022812,0.00587472343022812,0.00621042191195544,0.00654612039368276,0.00654612039368276,0.00654612039368276,0.00654612039368276,0.00654612039368276,0.00654612039368276,0.00654612039368276,0.00688181887541009,0.00688181887541009,0.0063782711528191,0.00688181887541009,0.00654612039368276,0.00654612039368276,0.00688181887541009,0.00654612039368276,0.00654612039368276,0.00654612039368276,0.00688181887541009,0.00654612039368276,0.00654612039368276,0.00654612039368276,0.00654612039368276,0.00704966811627375,0.00721751735713741,0.00688181887541009,0.00704966811627375,0.00704966811627375,0.00654612039368276,0.00621042191195544,0.00688181887541009,0.00688181887541009,0.00654612039368276,0.00654612039368276,0.00654612039368276,0.00654612039368276,0.0063782711528191,0.00621042191195544,0.00621042191195544,0.00654612039368276,0.00654612039368276,0.00721751735713741,0.00654612039368276,0.00654612039368276,0.00654612039368276,0.00621042191195544,0.00621042191195544,0.00621042191195544
Channel ACC,-0.71875,-0.6875,-0.71875,-0.71875
Channel ACC,0.6875,0.65625,0.6875,0.6875
Channel ACC,0.125,0.125,0.125,0.15625

#Frame16 #Time(ms) 577
Sensor 0
Channel EMG,0.0063782711528191,0.00654612039368276,0.00654612039368276,0.00654612039368276,0.00654612039368276,0.00654612039368276,0.00654612039368276,0.00654612039368276,0.00654612039368276,0.00654612039368276,0.00621042191195544,0.00621042191195544,0.00654612039368276,0.00654612039368276,0.00621042191195544,0.00654612039368276,0.00621042191195544,0.00587472343022812,0.00654612039368276,0.0063782711528191,0.00621042191195544,0.00621042191195544,0.00654612039368276,0.00621042191195544,0.0063782711528191,0.00654612039368276,0.00654612039368276,0.00654612039368276,0.00654612039368276,0.00654612039368276,0.00654612039368276,0.00654612039368276,0.0063782711528191,0.00688181887541009,0.00654612039368276,0.00654612039368276,0.00688181887541009,0.00721751735713741,0.00688181887541009,0.00654612039368276,0.0063782711528191,0.00621042191195544,0.0063782711528191,0.00654612039368276,0.00654612039368276,0.00654612039368276,0.00704966811627375,0.00721751735713741,0.00688181887541009,0.00654612039368276,0.00654612039368276,0.00688181887541009
Channel ACC,-0.71875,-0.71875,-0.71875,-0.71875
Channel ACC,0.6875,0.6875,0.6875,0.6875
Channel ACC,0.15625,0.15625,0.15625,0.15625

#Frame17 #Time(ms) 604
Sensor 0
Channel EMG,0.00688181887541009,0.00654612039368276,0.00621042191195544,0.00654612039368276,0.00654612039368276,0.00654612039368276,0.00621042191195544,0.00621042191195544,0.00587472343022812,0.00570687418936446,0.00570687418936446,0.00587472343022812,0.00587472343022812,0.00621042191195544,0.0063782711528191,0.0063782711528191,0.00621042191195544,0.00621042191195544,0.00654612039368276,0.00621042191195544,0.00654612039368276,0.00654612039368276,0.00654612039368276,0.00654612039368276,0.00654612039368276,0.0063782711528191,0.00654612039368276,0.00654612039368276,0.00621042191195544,0.00654612039368276,0.00654612039368276,0.00688181887541009,0.00688181887541009,0.00755321583886473,0.00755321583886473,0.00755321583886473,0.00721751735713741,0.00654612039368276,0.00704966811627375,0.00704966811627375,0.00704966811627375,0.00688181887541009,0.00721751735713741,0.00721751735713741,0.00704966811627375,0.00688181887541009,0.00704966811627375,0.00688181887541009,0.00721751735713741,0.00704966811627375,0.00721751735713741,0.00688181887541009
Channel ACC,-0.71875,-0.71875,-0.6875,-0.6875
Channel ACC,0.6875,0.6875,0.65625,0.65625
Channel ACC,0.15625,0.15625,0.15625,0.1875

#Frame18 #Time(ms) 631
Sensor 0
Channel EMG,0.00704966811627375,0.00654612039368276,0.0063782711528191,0.00621042191195544,0.00621042191195544,0.0063782711528191,0.00621042191195544,0.00654612039368276,0.00654612039368276,0.00654612039368276,0.00654612039368276,0.00604257267109178,0.00587472343022812,0.00520332646677348,0.00570687418936446,0.00621042191195544,0.00587472343022812,0.0055390249485008,0.00587472343022812,0.00587472343022812,0.0055390249485008,0.00570687418936446,0.00587472343022812,0.00587472343022812,0.00587472343022812,0.00621042191195544,0.00654612039368276,0.00688181887541009,0.00654612039368276,0.00654612039368276,0.0063782711528191,0.00654612039368276,0.00654612039368276,0.00654612039368276,0.00654612039368276,0.00654612039368276,0.00721751735713741,0.00721751735713741,0.00704966811627375,0.00654612039368276,0.0063782711528191,0.00621042191195544,0.00688181887541009,0.00721751735713741,0.00654612039368276,0.00688181887541009,0.00654612039368276,0.00654612039368276,0.00721751735713741,0.00704966811627375,0.00721751735713741,0.00721751735713741
Channel ACC,-0.71875,-0.71875,-0.71875,-0.71875
Channel ACC,0.6875,0.6875,0.6875,0.6875
Channel ACC,0.1875,0.1875,0.1875,0.21875

#Frame19 #Time(ms) 658
Sensor 0
Channel EMG,0.00721751735713741,0.00654612039368276,0.00688181887541009,0.00721751735713741,0.00788891432059205,0.00772106507972839,0.00721751735713741,0.00721751735713741,0.00738536659800107,0.00772106507972839,0.00755321583886473,0.00721751735713741,0.00654612039368276,0.00654612039368276,0.00654612039368276,0.00654612039368276,0.00654612039368276,0.0063782711528191,0.00621042191195544,0.00654612039368276,0.00654612039368276,0.00654612039368276,0.00654612039368276,0.00654612039368276,0.00654612039368276,0.00688181887541009,0.00654612039368276,0.00654612039368276,0.00654612039368276,0.00654612039368276,0.00604257267109178,0.00654612039368276,0.00587472343022812,0.00621042191195544,0.00621042191195544,0.0063782711528191,0.00654612039368276,0.00654612039368276,0.00654612039368276,0.00704966811627375,0.00654612039368276,0.00587472343022812,0.00587472343022812,0.0063782711528191,0.00654612039368276,0.00654612039368276,0.00654612039368276,0.00654612039368276,0.0063782711528191,0.00587472343022812,0.00654612039368276,0.00621042191195544
Channel ACC,-0.71875,-0.71875,-0.75,-0.75
Channel ACC,0.71875,0.71875,0.75,0.75
Channel ACC,0.25,0.28125,0.28125,0.28125

#Frame20 #Time(ms) 685
Sensor 0
Channel EMG,0.00621042191195544,0.0063782711528191,0.00621042191195544,0.00587472343022812,0.00587472343022812,0.00621042191195544,0.0063782711528191,0.0063782711528191,0.0063782711528191,0.00654612039368276,0.00621042191195544,0.00654612039368276,0.00654612039368276,0.00688181887541009,0.00688181887541009,0.00654612039368276,0.00654612039368276,0.00688181887541009,0.00721751735713741,0.00721751735713741,0.00654612039368276,0.00654612039368276,0.00704966811627375,0.00704966811627375,0.00654612039368276,0.00654612039368276,0.00654612039368276,0.0063782711528191,0.00654612039368276,0.00654612039368276,0.00654612039368276,0.00688181887541009,0.00654612039368276,0.00704966811627375,0.00704966811627375,0.00654612039368276,0.00654612039368276,0.00654612039368276,0.00621042191195544,0.00654612039368276,0.00688181887541009,0.00654612039368276,0.00654612039368276,0.00587472343022812,0.00654612039368276,0.00587472343022812,0.00621042191195544,0.00621042191195544,0.00621042191195544,0.0063782711528191,0.00654612039368276,0.00621042191195544
Channel ACC,-0.75,-0.75,-0.75,-0.75
Channel ACC,0.78125,0.78125,0.78125,0.8125
Channel ACC,0.28125,0.3125,0.34375,0.375

#Frame21 #Time(ms) 712
Sensor 0
Channel EMG,0.00654612039368276,0.00654612039368276,0.00688181887541009,0.00721751735713741,0.00755321583886473,0.00721751735713741,0.00755321583886473,0.00721751735713741,0.00688181887541009,0.00688181887541009,0.00688181887541009,0.00721751735713741,0.00721751735713741,0.00755321583886473,0.00772106507972839,0.00772106507972839,0.00755321583886473,0.00755321583886473,0.00788891432059205,0.00788891432059205,0.00721751735713741,0.00688181887541009,0.00721751735713741,0.00788891432059205,0.00788891432059205,0.00755321583886473,0.00704966811627375,0.00721751735713741,0.00721751735713741,0.00688181887541009,0.00654612039368276,0.00654612039368276,0.00654612039368276,0.00704966811627375,0.00688181887541009,0.00654612039368276,0.00587472343022812,0.00587472343022812,0.00621042191195544,0.0063782711528191,0.00621042191195544,0.00654612039368276,0.0063782711528191,0.0063782711528191,0.00621042191195544,0.00688181887541009,0.00688181887541009,0.00621042191195544,0.0063782711528191,0.00654612039368276,0.00654612039368276,0.0063782711528191
Channel ACC,-0.75,-0.75,-0.75,-0.75
Channel ACC,0.8125,0.8125,0.8125,0.78125
Channel ACC,0.375,0.40625,0.375,0.375

#Frame22 #Time(ms) 738
Sensor 0
Channel EMG,0.00654612039368276,0.00654612039368276,0.00704966811627375,0.00721751735713741,0.00688181887541009,0.00688181887541009,0.00654612039368276,0.00654612039368276,0.00654612039368276,0.00621042191195544,0.00621042191195544,0.00654612039368276,0.0063782711528191,0.00621042191195544,0.00621042191195544,0.00654612039368276,0.00654612039368276,0.0063782711528191,0.00621042191195544,0.00604257267109178,0.00587472343022812,0.00604257267109178,0.00621042191195544,0.0063782711528191,0.0063782711528191,0.00654612039368276,0.00621042191195544,0.00654612039368276,0.00654612039368276,0.00704966811627375,0.00688181887541009,0.0063782711528191,0.00654612039368276,0.00621042191195544,0.00587472343022812,0.00587472343022812,0.00621042191195544,0.00621042191195544,0.0063782711528191,0.00654612039368276,0.00688181887541009,0.00654612039368276,0.00654612039368276,0.00688181887541009,0.00688181887541009,0.00654612039368276,0.00587472343022812,0.00587472343022812,0.00654612039368276,0.00654612039368276,0.00654612039368276,0.00654612039368276
Channel ACC,-0.75,-0.75,-0.75,-0.75
Channel ACC,0.78125,0.78125,0.75,0.75
Channel ACC,0.34375,0.34375,0.3125,0.25

#Frame23 #Time(ms) 766
Sensor 0
Channel EMG,0.00654612039368276,0.0063782711528191,0.0063782711528191,0.00654612039368276,0.00704966811627375,0.00654612039368276,0.00654612039368276,0.00654612039368276,0.00654612039368276,0.00688181887541009,0.00654612039368276,0.00704966811627375,0.00721751735713741,0.00654612039368276,0.00688181887541009,0.00704966811627375,0.00755321583886473,0.00721751735713741,0.00721751735713741,0.00721751735713741,0.00704966811627375,0.00704966811627375,0.00721751735713741,0.00654612039368276,0.00688181887541009,0.00721751735713741,0.00721751735713741,0.00721751735713741,0.00704966811627375,0.00688181887541009,0.00654612039368276,0.00654612039368276,0.00654612039368276,0.00688181887541009,0.00654612039368276,0.00688181887541009,0.00654612039368276,0.00654612039368276,0.00654612039368276,0.0063782711528191,0.00654612039368276,0.00654612039368276,0.00654612039368276,0.00688181887541009,0.00688181887541009,0.00654612039368276,0.00587472343022812,0.00621042191195544,0.00654612039368276,0.00654612039368276,0.00654612039368276,0.00654612039368276
Channel ACC,-0.75,-0.75,-0.59375,-0.9375
Channel ACC,0.75,0.75,0.78125,0.875
Channel ACC,0.28125,0.3125,0.34375,0.375

#Frame24 #Time(ms) 793
Sensor 0
Channel EMG,0.00688181887541009,0.00654612039368276,0.00654612039368276,0.00604257267109178,0.00587472343022812,0.0055390249485008,0.00587472343022812,0.00621042191195544,0.00621042191195544,0.00621042191195544,0.00587472343022812,0.00587472343022812,0.00621042191195544,0.00587472343022812,0.00587472343022812,0.00587472343022812,0.00621042191195544,0.0063782711528191,0.00621042191195544,0.00604257267109178,0.00587472343022812,0.00587472343022812,0.00621042191195544,0.00570687418936446,0.00587472343022812,0.00654612039368276,0.00654612039368276,0.00654612039368276,0.00654612039368276,0.0063782711528191,0.00621042191195544,0.00621042191195544,0.00587472343022812,0.00621042191195544,0.00654612039368276,0.00621042191195544,0.00621042191195544,0.00621042191195544,0.00654612039368276,0.00621042191195544,0.00604257267109178,0.00621042191195544,0.00621042191195544,0.00654612039368276,0.00654612039368276,0.00654612039368276,0.0063782711528191,0.00621042191195544,0.00621042191195544,0.0063782711528191,0.00654612039368276,0.0063782711528191
Channel ACC,-0.8125,-0.78125,-0.75,-0.75
Channel ACC,0.875,0.78125,0.71875,0.71875
Channel ACC,0.28125,0.25,0.1875,0.15625

#Frame25 #Time(ms) 820
Sensor 0
Channel EMG,0.0063782711528191,0.00621042191195544,0.00587472343022812,0.00604257267109178,0.00621042191195544,0.0063782711528191,0.00621042191195544,0.00654612039368276,0.00604257267109178,0.00587472343022812,0.00587472343022812,0.00587472343022812,0.00621042191195544,0.00621042191195544,0.00587472343022812,0.00587472343022812,0.00587472343022812,0.00570687418936446,0.0055390249485008,0.0055390249485008,0.00587472343022812,0.00587472343022812,0.00587472343022812,0.00587472343022812,0.00621042191195544,0.00621042191195544,0.00654612039368276,0.00654612039368276,0.00688181887541009,0.00654612039368276,0.00654612039368276,0.00721751735713741,0.00721751735713741,0.00721751735713741,0.00704966811627375,0.00654612039368276,0.00704966811627375,0.00688181887541009,0.00654612039368276,0.00654612039368276,0.00654612039368276,0.00688181887541009,0.00721751735713741,0.00654612039368276,0.00704966811627375,0.00688181887541009,0.00654612039368276,0.00654612039368276,0.0063782711528191,0.00654612039368276,0.00654612039368276,0.00621042191195544
Channel ACC,-0.75,-0.75,-0.78125,-0.78125
Channel ACC,0.75,0.75,0.78125,0.8125
Channel ACC,0.125,0.15625,0.125,0.03125

#Frame26 #Time(ms) 847
Sensor 0
Channel EMG,0.00587472343022812,0.00621042191195544,0.0063782711528191,0.00621042191195544,0.00654612039368276,0.00688181887541009,0.00688181887541009,0.00654612039368276,0.0063782711528191,0.00621042191195544,0.0063782711528191,0.00654612039368276,0.00654612039368276,0.0063782711528191,0.00654612039368276,0.00654612039368276,0.0063782711528191,0.00621042191195544,0.00654612039368276,0.00654612039368276,0.00587472343022812,0.00587472343022812,0.0063782711528191,0.00654612039368276,0.00654612039368276,0.00654612039368276,0.00654612039368276,0.0063782711528191,0.00654612039368276,0.00654612039368276,0.00621042191195544,0.00621042191195544,0.0063782711528191,0.0063782711528191,0.00604257267109178,0.00621042191195544,0.0063782711528191,0.00621042191195544,0.00621042191195544,0.00587472343022812,0.00587472343022812,0.00587472343022812,0.00621042191195544,0.0063782711528191,0.00587472343022812,0.00654612039368276,0.00621042191195544,0.00621042191195544,0.00621042191195544,0.00621042191195544,0.00587472343022812,0.00587472343022812
Channel ACC,-0.8125,-0.8125,-0.8125,-0.8125
Channel ACC,0.8125,0.8125,0.8125,0.8125
Channel ACC,-0.03125,-0.03125,-0.0625,-0.0625

#Frame27 #Time(ms) 874
Sensor 0
Channel EMG,0.00654612039368276,0.00621042191195544,0.00587472343022812,0.00587472343022812,0.00621042191195544,0.00621042191195544,0.00587472343022812,0.00604257267109178,0.00621042191195544,0.00587472343022812,0.00587472343022812,0.0063782711528191,0.00621042191195544,0.00587472343022812,0.0055390249485008,0.0055390249485008,0.00587472343022812,0.00570687418936446,0.0055390249485008,0.00520332646677348,0.00587472343022812,0.00570687418936446,0.00621042191195544,0.00587472343022812,0.0055390249485008,0.00587472343022812,0.0055390249485008,0.0055390249485008,0.00621042191195544,0.00587472343022812,0.00621042191195544,0.00621042191195544,0.00587472343022812,0.00587472343022812,0.00621042191195544,0.00621042191195544,0.00587472343022812,0.00621042191195544,0.00621042191195544,0.00621042191195544,0.00587472343022812,0.00587472343022812,0.0063782711528191,0.00654612039368276,0.00654612039368276,0.00654612039368276,0.00654612039368276,0.00654612039368276,0.00654612039368276,0.00621042191195544,0.00654612039368276,0.00654612039368276
Channel ACC,-0.8125,-0.84375,-0.84375,-0.84375
Channel ACC,0.8125,0.78125,0.78125,0.78125
Channel ACC,0,0.03125,0.03125,0.03125

#Frame28 #Time(ms) 901
Sensor 0
Channel EMG,0.00688181887541009,0.00688181887541009,0.00654612039368276,0.00654612039368276,0.00688181887541009,0.00704966811627375,0.00654612039368276,0.00654612039368276,0.00688181887541009,0.00721751735713741,0.00721751735713741,0.00688181887541009,0.00704966811627375,0.00721751735713741,0.00688181887541009,0.00688181887541009,0.00688181887541009,0.00654612039368276,0.00688181887541009,0.00654612039368276,0.00621042191195544,0.00587472343022812,0.00587472343022812,0.00587472343022812,0.00621042191195544,0.00587472343022812,0.0055390249485008,0.0055390249485008,0.0055390249485008,0.00520332646677348,0.00587472343022812,0.00587472343022812,0.00570687418936446,0.00587472343022812,0.00570687418936446,0.00520332646677348,0.00621042191195544,0.00654612039368276,0.00621042191195544,0.00621042191195544,0.00654612039368276,0.00688181887541009,0.00704966811627375,0.00654612039368276,0.0063782711528191,0.00621042191195544,0.0063782711528191,0.00654612039368276,0.00721751735713741,0.00721751735713741,0.00721751735713741,0.00688181887541009
Channel ACC,-0.84375,-0.84375,-0.84375,-0.875
Channel ACC,0.78125,0.78125,0.78125,0.78125
Channel ACC,0.03125,0,0,-0.0625

#Frame29 #Time(ms) 927
Sensor 0
Channel EMG,0.00654612039368276,0.00621042191195544,0.00621042191195544,0.0063782711528191,0.00654612039368276,0.00688181887541009,0.00654612039368276,0.0063782711528191,0.00621042191195544,0.00654612039368276,0.0063782711528191,0.0055390249485008,0.0055390249485008,0.00587472343022812,0.00587472343022812,0.00621042191195544,0.0063782711528191,0.00654612039368276,0.00654612039368276,0.00654612039368276,0.00654612039368276,0.00654612039368276,0.00654612039368276,0.00688181887541009,0.00654612039368276,0.00654612039368276,0.00654612039368276,0.00654612039368276,0.00654612039368276,0.00654612039368276,0.00621042191195544,0.0063782711528191,0.00621042191195544,0.00654612039368276,0.00621042191195544,0.00587472343022812,0.0055390249485008,0.0055390249485008,0.00587472343022812,0.00621042191195544,0.00587472343022812,0.00587472343022812,0.00587472343022812,0.00587472343022812,0.00570687418936446,0.00587472343022812,0.00604257267109178,0.00570687418936446,0.00587472343022812,0.00621042191195544,0.00621042191195544,0.00587472343022812
Channel ACC,-0.875,-0.875,-0.90625,-0.9375
Channel ACC,0.78125,0.78125,0.78125,0.78125
Channel ACC,-0.09375,-0.09375,-0.0625,0

#Frame30 #Time(ms) 955
Sensor 0
Channel EMG,0.00621042191195544,0.0063782711528191,0.00621042191195544,0.00621042191195544,0.00587472343022812,0.00587472343022812,0.00621042191195544,0.0063782711528191,0.00654612039368276,0.0063782711528191,0.00654612039368276,0.00704966811627375,0.00688181887541009,0.00621042191195544,0.00621042191195544,0.00688181887541009,0.00654612039368276,0.00587472343022812,0.00621042191195544,0.00621042191195544,0.00587472343022812,0.00587472343022812,0.00654612039368276,0.0063782711528191,0.0063782711528191,0.00621042191195544,0.00587472343022812,0.0055390249485008,0.0055390249485008,0.00587472343022812,0.00587472343022812,0.00604257267109178,0.0063782711528191,0.00704966811627375,0.00654612039368276,0.00654612039368276,0.0063782711528191,0.00654612039368276,0.00654612039368276,0.00654612039368276,0.00621042191195544,0.0063782711528191,0.00654612039368276,0.00654612039368276,0.00654612039368276,0.00654612039368276,0.00570687418936446,0.00621042191195544,0.00654612039368276,0.00654612039368276,0.00654612039368276,0.00587472343022812
Channel ACC,-0.9375,-0.9375,-0.9375,-0.9375
Channel ACC,0.75,0.6875,0.65625,0.59375
Channel ACC,0.0625,0.09375,0.125,0.15625

#Frame31 #Time(ms) 982
Sensor 0
Channel EMG,0.00587472343022812,0.0063782711528191,0.00654612039368276,0.00654612039368276,0.0063782711528191,0.00621042191195544,0.00621042191195544,0.00587472343022812,0.00587472343022812,0.00621042191195544,0.00654612039368276,0.00621042191195544,0.00654612039368276,0.00704966811627375,0.00654612039368276,0.00654612039368276,0.00688181887541009,0.00688181887541009,0.00688181887541009,0.00654612039368276,0.00654612039368276,0.00654612039368276,0.00654612039368276,0.00654612039368276,0.00654612039368276,0.00688181887541009,0.00654612039368276,0.00688181887541009,0.00704966811627375,0.00654612039368276,0.00621042191195544,0.00587472343022812,0.00604257267109178,0.00654612039368276,0.00621042191195544,0.00654612039368276,0.00654612039368276,0.00621042191195544,0.00654612039368276,0.00688181887541009,0.00654612039368276,0.00654612039368276,0.00604257267109178,0.00621042191195544,0.00654612039368276,0.00654612039368276,0.00654612039368276,0.00654612039368276,0.00587472343022812,0.00587472343022812,0.00587472343022812,0.00654612039368276
Channel ACC,-0.9375,-0.90625,-0.90625,-0.90625
Channel ACC,0.53125,0.46875,0.40625,0.40625
Channel ACC,0.1875,0.25,0.28125,0.3125

#Frame32 #Time(ms) 1009
Sensor 0
Channel EMG,0.0063782711528191,0.00654612039368276,0.00654612039368276,0.00654612039368276,0.00587472343022812,0.00587472343022812,0.00587472343022812,0.00621042191195544,0.00587472343022812,0.00587472343022812,0.00654612039368276,0.00621042191195544,0.00587472343022812,0.00570687418936446,0.00587472343022812,0.00587472343022812,0.00587472343022812,0.00587472343022812,0.00621042191195544,0.0063782711528191,0.00587472343022812,0.0055390249485008,0.00587472343022812,0.00621042191195544,0.0063782711528191,0.00654612039368276,0.00621042191195544,0.00654612039368276,0.00621042191195544,0.00587472343022812,0.00621042191195544,0.00621042191195544,0.00587472343022812,0.00621042191195544,0.00621042191195544,0.00587472343022812,0.00621042191195544,0.00654612039368276,0.00654612039368276,0.00621042191195544,0.00621042191195544,0.00654612039368276,0.0063782711528191,0.00621042191195544,0.00654612039368276,0.00688181887541009,0.00671396963454643,0.00621042191195544,0.00621042191195544,0.00621042191195544,0.00654612039368276,0.00587472343022812
Channel ACC,-0.90625,-0.90625,-1,-0.9375
Channel ACC,0.375,0.3125,0.40625,0.3125
Channel ACC,0.3125,0.3125,0.34375,0.34375

#Frame33 #Time(ms) 1036
Sensor 0
Channel EMG,0.00570687418936446,0.00587472343022812,0.00587472343022812,0.00654612039368276,0.00654612039368276,0.00587472343022812,0.00587472343022812,0.00587472343022812,0.00587472343022812,0.00621042191195544,0.00587472343022812,0.00621042191195544,0.00654612039368276,0.00654612039368276,0.0063782711528191,0.00654612039368276,0.00604257267109178,0.00587472343022812,0.00621042191195544,0.00654612039368276,0.0063782711528191,0.00654612039368276,0.00621042191195544,0.00654612039368276,0.00654612039368276,0.00654612039368276,0.0063782711528191,0.00654612039368276,0.00654612039368276,0.00654612039368276,0.00654612039368276,0.00654612039368276,0.0063782711528191,0.00654612039368276,0.0063782711528191,0.00654612039368276,0.00721751735713741,0.00721751735713741,0.00704966811627375,0.00721751735713741,0.00688181887541009,0.00688181887541009,0.00704966811627375,0.00721751735713741,0.00688181887541009,0.00688181887541009,0.00688181887541009,0.00688181887541009,0.00704966811627375,0.00704966811627375,0.00688181887541009,0.00621042191195544
Channel ACC,-0.90625,-0.90625,-0.90625,-0.90625
Channel ACC,0.21875,0.15625,0.09375,0.09375
Channel ACC,0.28125,0.28125,0.3125,0.34375

#Frame34 #Time(ms) 1063
Sensor 0
Channel EMG,0.0063782711528191,0.00621042191195544,0.00621042191195544,0.00654612039368276,0.00654612039368276,0.00654612039368276,0.00654612039368276,0.00671396963454643,0.00654612039368276,0.00654612039368276,0.0063782711528191,0.00654612039368276,0.00721751735713741,0.00704966811627375,0.00721751735713741,0.00704966811627375,0.00721751735713741,0.00721751735713741,0.00721751735713741,0.00755321583886473,0.00755321583886473,0.00721751735713741,0.00704966811627375,0.00721751735713741,0.00755321583886473,0.00721751735713741,0.00704966811627375,0.00721751735713741,0.00654612039368276,0.00654612039368276,0.00721751735713741,0.00755321583886473,0.00721751735713741,0.00704966811627375,0.00654612039368276,0.00654612039368276,0.00654612039368276,0.00654612039368276,0.00621042191195544,0.00621042191195544,0.00654612039368276,0.00721751735713741,0.00688181887541009,0.00654612039368276,0.00721751735713741,0.00721751735713741,0.00654612039368276,0.0063782711528191,0.00654612039368276,0.00654612039368276,0.0063782711528191,0.0063782711528191
Channel ACC,-0.9375,-0.90625,-0.90625,-0.90625
Channel ACC,0.03125,-0.03125,-0.09375,-0.15625
Channel ACC,0.40625,0.46875,0.53125,0.5625

#Frame35 #Time(ms) 1089
Sensor 0
Channel EMG,0.00621042191195544,0.00621042191195544,0.00621042191195544,0.00654612039368276,0.00621042191195544,0.00654612039368276,0.00654612039368276,0.00654612039368276,0.00654612039368276,0.0063782711528191,0.0063782711528191,0.0063782711528191,0.00654612039368276,0.00621042191195544,0.00587472343022812,0.0063782711528191,0.00621042191195544,0.00621042191195544,0.00654612039368276,0.0063782711528191,0.00604257267109178,0.00604257267109178,0.00587472343022812,0.00587472343022812,0.00621042191195544,0.00621042191195544,0.00654612039368276,0.00654612039368276,0.00654612039368276,0.00654612039368276,0.00688181887541009,0.00688181887541009,0.00688181887541009,0.00654612039368276,0.00621042191195544,0.00654612039368276,0.00654612039368276,0.00604257267109178,0.00621042191195544,0.0063782711528191,0.00654612039368276,0.00654612039368276,0.00688181887541009,0.00704966811627375,0.00721751735713741,0.00688181887541009,0.00654612039368276,0.00654612039368276,0.00654612039368276,0.00621042191195544,0.00621042191195544,0.00621042191195544
Channel ACC,-0.875,-0.84375,-0.8125,-0.78125
Channel ACC,-0.21875,-0.28125,-0.375,-0.4375
Channel ACC,0.53125,0.4375,0.375,0.3125

#Frame36 #Time(ms) 1116
Sensor 0
Channel EMG,0.00688181887541009,0.00654612039368276,0.00621042191195544,0.00654612039368276,0.00654612039368276,0.00654612039368276,0.00688181887541009,0.00654612039368276,0.00621042191195544,0.00654612039368276,0.00654612039368276,0.00654612039368276,0.00688181887541009,0.00654612039368276,0.00654612039368276,0.00654612039368276,0.00704966811627375,0.00688181887541009,0.00721751735713741,0.00721751735713741,0.00654612039368276,0.00688181887541009,0.00688181887541009,0.00654612039368276,0.00721751735713741,0.00704966811627375,0.00654612039368276,0.00654612039368276,0.00654612039368276,0.00654612039368276,0.00688181887541009,0.00654612039368276,0.00654612039368276,0.00654612039368276,0.00654612039368276,0.00654612039368276,0.00654612039368276,0.00654612039368276,0.00688181887541009,0.00654612039368276,0.00654612039368276,0.00654612039368276,0.00688181887541009,0.00654612039368276,0.00654612039368276,0.00621042191195544,0.00621042191195544,0.00621042191195544,0.00654612039368276,0.00688181887541009,0.00704966811627375,0.00688181887541009
Channel ACC,-0.78125,-0.75,-0.71875,-0.6875
Channel ACC,-0.46875,-0.53125,-0.625,-0.6875
Channel ACC,0.28125,0.21875,0.125,0.09375

#Frame37 #Time(ms) 1144
Sensor 0
Channel EMG,0.00721751735713741,0.00721751735713741,0.00755321583886473,0.00721751735713741,0.00721751735713741,0.00721751735713741,0.00688181887541009,0.00704966811627375,0.00654612039368276,0.00654612039368276,0.00654612039368276,0.00688181887541009,0.00721751735713741,0.00688181887541009,0.00721751735713741,0.00721751735713741,0.00688181887541009,0.00654612039368276,0.00688181887541009,0.00721751735713741,0.00688181887541009,0.00704966811627375,0.00688181887541009,0.00688181887541009,0.00738536659800107,0.00755321583886473,0.00721751735713741,0.00721751735713741,0.00721751735713741,0.00721751735713741,0.00688181887541009,0.00654612039368276,0.00654612039368276,0.00654612039368276,0.0063782711528191,0.00654612039368276,0.00621042191195544,0.00587472343022812,0.00621042191195544,0.00621042191195544,0.0063782711528191,0.00621042191195544,0.00587472343022812,0.00621042191195544,0.00654612039368276,0.00654612039368276,0.00654612039368276,0.00654612039368276,0.00654612039368276,0.00654612039368276,0.00654612039368276,0.00654612039368276
Channel ACC,-0.6875,-0.6875,-0.6875,-0.71875
Channel ACC,-0.75,-0.75,-0.75,-0.71875
Channel ACC,0.125,0.15625,0.15625,0.15625

#Frame38 #Time(ms) 1170
Sensor 0
Channel EMG,0.00654612039368276,0.00654612039368276,0.00654612039368276,0.00654612039368276,0.00654612039368276,0.00654612039368276,0.00654612039368276,0.00654612039368276,0.0063782711528191,0.00621042191195544,0.00621042191195544,0.00587472343022812,0.00587472343022812,0.00587472343022812,0.0055390249485008,0.00587472343022812,0.00587472343022812,0.00587472343022812,0.00587472343022812,0.00654612039368276,0.00654612039368276,0.00654612039368276,0.00721751735713741,0.00688181887541009,0.00654612039368276,0.00654612039368276,0.00654612039368276,0.00654612039368276,0.00654612039368276,0.00621042191195544,0.00654612039368276,0.00688181887541009,0.00721751735713741,0.00704966811627375,0.00704966811627375,0.00721751735713741,0.00721751735713741,0.00755321583886473,0.00721751735713741,0.00721751735713741,0.00721751735713741,0.00704966811627375,0.00654612039368276,0.00654612039368276,0.00704966811627375,0.00704966811627375,0.00688181887541009,0.00721751735713741,0.00721751735713741,0.00688181887541009,0.00654612039368276,0.00688181887541009
Channel ACC,-0.75,-0.78125,-0.8125,-0.8125
Channel ACC,-0.71875,-0.71875,-0.75,-0.75
Channel ACC,0.15625,0.15625,0.125,0.09375

#Frame39 #Time(ms) 1198
Sensor 0
Channel EMG,0.00721751735713741,0.00654612039368276,0.00654612039368276,0.00654612039368276,0.00704966811627375,0.00721751735713741,0.00704966811627375,0.00721751735713741,0.00654612039368276,0.00654612039368276,0.00654612039368276,0.00654612039368276,0.00688181887541009,0.00654612039368276,0.00654612039368276,0.00688181887541009,0.00688181887541009,0.00704966811627375,0.00721751735713741,0.00721751735713741,0.00721751735713741,0.00688181887541009,0.00654612039368276,0.00688181887541009,0.00721751735713741,0.00654612039368276,0.00654612039368276,0.00621042191195544,0.00604257267109178,0.00621042191195544,0.00604257267109178,0.00587472343022812,0.00587472343022812,0.00621042191195544,0.00621042191195544,0.00587472343022812,0.00570687418936446,0.00570687418936446,0.00621042191195544,0.00621042191195544,0.00587472343022812,0.00587472343022812,0.0055390249485008,0.00587472343022812,0.00621042191195544,0.00604257267109178,0.00621042191195544,0.00587472343022812,0.00587472343022812,0.0055390249485008,0.00587472343022812,0.00621042191195544
Channel ACC,-0.8125,-0.78125,-0.75,-0.71875
Channel ACC,-0.8125,-0.875,-0.9375,-0.96875
Channel ACC,0.0625,0.0625,0.09375,0.125

#Frame40 #Time(ms) 1225
Sensor 0
Channel EMG,0.00654612039368276,0.00654612039368276,0.00654612039368276,0.00654612039368276,0.0063782711528191,0.00621042191195544,0.00654612039368276,0.00654612039368276,0.00621042191195544,0.0063782711528191,0.00654612039368276,0.00654612039368276,0.00654612039368276,0.00688181887541009,0.00654612039368276,0.00654612039368276,0.00654612039368276,0.00654612039368276,0.00721751735713741,0.00721751735713741,0.00704966811627375,0.00704966811627375,0.00721751735713741,0.00721751735713741,0.00688181887541009,0.00654612039368276,0.00671396963454643,0.00704966811627375,0.00688181887541009,0.00688181887541009,0.00688181887541009,0.00721751735713741,0.00704966811627375,0.00721751735713741,0.00721751735713741,0.00704966811627375,0.00654612039368276,0.0063782711528191,0.00688181887541009,0.00721751735713741,0.00721751735713741,0.00688181887541009,0.00704966811627375,0.00721751735713741,0.00721751735713741,0.00704966811627375,0.00738536659800107,0.00721751735713741,0.00688181887541009,0.00654612039368276,0.00654612039368276,0.00721751735713741
Channel ACC,-0.6875,-0.65625,-0.625,-0.59375
Channel ACC,-0.96875,-0.96875,-0.9375,-0.90625
Channel ACC,0.1875,0.25,0.28125,0.28125

#Frame41 #Time(ms) 1251
Sensor 0
Channel EMG,0.00654612039368276,0.00654612039368276,0.00621042191195544,0.0063782711528191,0.00587472343022812,0.00621042191195544,0.00654612039368276,0.00688181887541009,0.00654612039368276,0.00654612039368276,0.00621042191195544,0.00654612039368276,0.00654612039368276,0.0063782711528191,0.0063782711528191,0.00621042191195544,0.0063782711528191,0.00654612039368276,0.00654612039368276,0.00654612039368276,0.00654612039368276,0.00654612039368276,0.00654612039368276,0.00654612039368276,0.00688181887541009,0.00688181887541009,0.00688181887541009,0.00654612039368276,0.00654612039368276,0.00688181887541009,0.0063782711528191,0.00621042191195544,0.00621042191195544,0.00654612039368276,0.00621042191195544,0.00654612039368276,0.00621042191195544,0.00654612039368276,0.00654612039368276,0.00654612039368276,0.00654612039368276,0.00688181887541009,0.00704966811627375,0.00721751735713741,0.00721751735713741,0.00721751735713741,0.00721751735713741,0.00721751735713741,0.00704966811627375,0.00654612039368276,0.00688181887541009,0.00721751735713741
Channel ACC,-0.5625,-0.53125,-0.5625,-0.5625
Channel ACC,-0.84375,-0.78125,-0.71875,-0.65625
Channel ACC,0.21875,0.125,0.0625,0

#Frame42 #Time(ms) 1279
Sensor 0
Channel EMG,0.00721751735713741,0.00688181887541009,0.00721751735713741,0.00654612039368276,0.00621042191195544,0.00621042191195544,0.00688181887541009,0.00721751735713741,0.00688181887541009,0.00688181887541009,0.00721751735713741,0.00704966811627375,0.00688181887541009,0.00688181887541009,0.00688181887541009,0.00654612039368276,0.00721751735713741,0.00688181887541009,0.00654612039368276,0.00654612039368276,0.0063782711528191,0.0063782711528191,0.00654612039368276,0.00604257267109178,0.00654612039368276,0.0063782711528191,0.0063782711528191,0.00654612039368276,0.00654612039368276,0.00654612039368276,0.00688181887541009,0.00755321583886473,0.00721751735713741,0.00755321583886473,0.00788891432059205,0.00788891432059205,0.00788891432059205,0.00721751735713741,0.00755321583886473,0.00721751735713741,0.00654612039368276,0.00654612039368276,0.00704966811627375,0.00704966811627375,0.00688181887541009,0.0063782711528191,0.00654612039368276,0.00654612039368276,0.00654612039368276,0.00654612039368276,0.00688181887541009,0.00654612039368276
Channel ACC,-0.625,-0.65625,-0.71875,-0.78125
Channel ACC,-0.53125,-0.4375,-0.34375,-0.28125
Channel ACC,-0.0625,-0.09375,-0.125,-0.125

#Frame43 #Time(ms) 1306
Sensor 0
Channel EMG,0.00621042191195544,0.00654612039368276,0.00654612039368276,0.00621042191195544,0.00621042191195544,0.00654612039368276,0.00621042191195544,0.00688181887541009,0.00721751735713741,0.00688181887541009,0.00654612039368276,0.00654612039368276,0.00621042191195544,0.00621042191195544,0.00654612039368276,0.00654612039368276,0.00704966811627375,0.00654612039368276,0.00654612039368276,0.00654612039368276,0.0063782711528191,0.0063782711528191,0.00587472343022812,0.00587472343022812,0.00621042191195544,0.00654612039368276,0.00621042191195544,0.0063782711528191,0.00654612039368276,0.00654612039368276,0.00654612039368276,0.00654612039368276,0.00587472343022812,0.00587472343022812,0.00587472343022812,0.00621042191195544,0.00621042191195544,0.00587472343022812,0.00587472343022812,0.00587472343022812,0.00587472343022812,0.00587472343022812,0.00587472343022812,0.00604257267109178,0.00654612039368276,0.00688181887541009,0.00654612039368276,0.00621042191195544,0.0063782711528191,0.0063782711528191,0.0063782711528191,0.00621042191195544
Channel ACC,-0.84375,-0.875,-0.90625,-0.90625
Channel ACC,-0.25,-0.1875,-0.15625,-0.125
Channel ACC,-0.15625,-0.1875,-0.1875,-0.15625

#Frame44 #Time(ms) 1333
Sensor 0
Channel EMG,0.00621042191195544,0.00621042191195544,0.0063782711528191,0.00654612039368276,0.00654612039368276,0.00654612039368276,0.0063782711528191,0.0063782711528191,0.00621042191195544,0.00654612039368276,0.00688181887541009,0.00654612039368276,0.00654612039368276,0.00704966811627375,0.00688181887541009,0.00671396963454643,0.00688181887541009,0.00721751735713741,0.00755321583886473,0.00721751735713741,0.00704966811627375,0.00704966811627375,0.00721751735713741,0.00721751735713741,0.00654612039368276,0.00654612039368276,0.00721751735713741,0.00721751735713741,0.00721751735713741,0.00688181887541009,0.00688181887541009,0.00654612039368276,0.00621042191195544,0.00688181887541009,0.00654612039368276,0.00654612039368276,0.00654612039368276,0.00654612039368276,0.00654612039368276,0.0063782711528191,0.00654612039368276,0.0063782711528191,0.00654612039368276,0.00621042191195544,0.00654612039368276,0.00704966811627375,0.00654612039368276,0.00654612039368276,0.00654612039368276,0.00654612039368276,0.00621042191195544,0.00621042191195544
Channel ACC,-0.9375,-0.90625,-0.90625,-0.875
Channel ACC,-0.09375,-0.09375,-0.09375,-0.09375
Channel ACC,-0.125,-0.03125,0,0.09375

#Frame45 #Time(ms) 1359
Sensor 0
Channel EMG,0.00654612039368276,0.00654612039368276,0.00654612039368276,0.00654612039368276,0.00654612039368276,0.00654612039368276,0.00621042191195544,0.00654612039368276,0.00654612039368276,0.00654612039368276,0.00621042191195544,0.00654612039368276,0.00654612039368276,0.00654612039368276,0.00654612039368276,0.00621042191195544,0.00587472343022812,0.0063782711528191,0.00654612039368276,0.00688181887541009,0.00688181887541009,0.00654612039368276,0.00654612039368276,0.00688181887541009,0.00688181887541009,0.00654612039368276,0.00654612039368276,0.00654612039368276,0.00688181887541009,0.00654612039368276,0.00654612039368276,0.00704966811627375,0.00654612039368276,0.00704966811627375,0.00688181887541009,0.00654612039368276,0.00621042191195544,0.00621042191195544,0.0063782711528191,0.0063782711528191,0.00587472343022812,0.00587472343022812,0.00621042191195544,0.00654612039368276,0.00654612039368276,0.00621042191195544,0.00621042191195544,0.00654612039368276,0.00621042191195544,0.00621042191195544,0.00721751735713741,0.00704966811627375
Channel ACC,-0.78125,-0.8125,-0.8125,-0.8125
Channel ACC,-0.09375,-0.125,-0.125,-0.125
Channel ACC,0.125,0.21875,0.375,0.46875

#Frame46 #Time(ms) 1387
Sensor 0
Channel EMG,0.00721751735713741,0.00721751735713741,0.00721751735713741,0.00654612039368276,0.0063782711528191,0.00654612039368276,0.00654612039368276,0.0063782711528191,0.00621042191195544,0.00654612039368276,0.00688181887541009,0.00654612039368276,0.00721751735713741,0.00721751735713741,0.00755321583886473,0.00755321583886473,0.00755321583886473,0.00721751735713741,0.00704966811627375,0.00688181887541009,0.00721751735713741,0.00671396963454643,0.00704966811627375,0.00688181887541009,0.00704966811627375,0.00721751735713741,0.00654612039368276,0.00688181887541009,0.00688181887541009,0.00688181887541009,0.00721751735713741,0.00688181887541009,0.00621042191195544,0.00654612039368276,0.0063782711528191,0.00654612039368276,0.00654612039368276,0.00654612039368276,0.00688181887541009,0.00654612039368276,0.0063782711528191,0.00621042191195544,0.0063782711528191,0.00621042191195544,0.00654612039368276,0.00654612039368276,0.00721751735713741,0.00688181887541009,0.00654612039368276,0.0063782711528191,0.00654612039368276,0.00738536659800107
Channel ACC,-0.8125,-0.78125,-0.75,-0.65625
Channel ACC,-0.125,-0.1875,-0.25,-0.34375
Channel ACC,0.65625,0.78125,0.8125,0.8125

#Frame47 #Time(ms) 1414
Sensor 0
Channel EMG,0.00721751735713741,0.00688181887541009,0.00688181887541009,0.00721751735713741,0.00704966811627375,0.00704966811627375,0.00721751735713741,0.00704966811627375,0.00704966811627375,0.00654612039368276,0.00704966811627375,0.00721751735713741,0.00721751735713741,0.00721751735713741,0.00688181887541009,0.00654612039368276,0.00704966811627375,0.00721751735713741,0.00721751735713741,0.00688181887541009,0.00688181887541009,0.00721751735713741,0.00654612039368276,0.0063782711528191,0.00654612039368276,0.00621042191195544,0.00621042191195544,0.00621042191195544,0.00587472343022812,0.0055390249485008,0.00621042191195544,0.00688181887541009,0.00688181887541009,0.00688181887541009,0.00654612039368276,0.00654612039368276,0.00621042191195544,0.00654612039368276,0.0063782711528191,0.00654612039368276,0.00621042191195544,0.00688181887541009,0.00704966811627375,0.00688181887541009,0.00654612039368276,0.00621042191195544,0.00621042191195544,0.00621042191195544,0.00621042191195544,0.00621042191195544,0.00654612039368276,0.00688181887541009
Channel ACC,-0.59375,-0.59375,-0.59375,-0.59375
Channel ACC,-0.40625,-0.4375,-0.5,-0.5625
Channel ACC,0.8125,0.84375,0.875,0.875

#Frame48 #Time(ms) 1441
Sensor 0
Channel EMG,0.00704966811627375,0.00688181887541009,0.00654612039368276,0.00688181887541009,0.00654612039368276,0.00654612039368276,0.00654612039368276,0.00654612039368276,0.00688181887541009,0.00704966811627375,0.00654612039368276,0.0063782711528191,0.00654612039368276,0.0063782711528191,0.00621042191195544,0.00654612039368276,0.00621042191195544,0.0063782711528191,0.00654612039368276,0.00654612039368276,0.00621042191195544,0.00621042191195544,0.00621042191195544,0.0063782711528191,0.00654612039368276,0.00654612039368276,0.00654612039368276,0.00654612039368276,0.00654612039368276,0.00654612039368276,0.00654612039368276,0.00654612039368276,0.00654612039368276,0.00721751735713741,0.00704966811627375,0.00688181887541009,0.00654612039368276,0.0063782711528191,0.00654612039368276,0.00654612039368276,0.00721751735713741,0.00721751735713741,0.00721751735713741,0.00688181887541009,0.00721751735713741,0.00704966811627375,0.00721751735713741,0.00721751735713741,0.00788891432059205,0.00755321583886473,0.00721751735713741,0.00755321583886473
Channel ACC,-0.5625,-0.53125,-0.53125,-0.53125
Channel ACC,-0.625,-0.65625,-0.75,-0.875
Channel ACC,0.875,0.8125,0.84375,0.875

#Frame49 #Time(ms) 1467
Sensor 0
Channel EMG,0.00721751735713741,0.00721751735713741,0.00721751735713741,0.00721751735713741,0.00721751735713741,0.00671396963454643,0.00654612039368276,0.00654612039368276,0.00654612039368276,0.00654612039368276,0.00654612039368276,0.00671396963454643,0.00721751735713741,0.00704966811627375,0.00654612039368276,0.00654612039368276,0.00654612039368276,0.00654612039368276,0.00621042191195544,0.00621042191195544,0.00621042191195544,0.00654612039368276,0.0063782711528191,0.00587472343022812,0.00587472343022812,0.00621042191195544,0.00587472343022812,0.00587472343022812,0.0055390249485008,0.0055390249485008,0.00621042191195544,0.00654612039368276,0.00688181887541009,0.00721751735713741,0.00688181887541009,0.00688181887541009,0.00654612039368276,0.00721751735713741,0.00721751735713741,0.00721751735713741,0.00721751735713741,0.00755321583886473,0.00755321583886473,0.00755321583886473,0.00721751735713741,0.00721751735713741,0.00721751735713741,0.00721751735713741,0.00721751735713741,0.00721751735713741,0.00755321583886473,0.00721751735713741
Channel ACC,-0.5625,-0.5625,-0.5625,-0.59375
Channel ACC,-0.90625,-0.875,-0.8125,-0.6875
Channel ACC,0.84375,0.71875,0.59375,0.5

#Frame50 #Time(ms) 1495
Sensor 0
Channel EMG,0.00721751735713741,0.00721751735713741,0.00721751735713741,0.00721751735713741,0.00654612039368276,0.00654612039368276,0.00654612039368276,0.00688181887541009,0.00654612039368276,0.00621042191195544,0.00587472343022812,0.00621042191195544,0.00654612039368276,0.00688181887541009,0.00704966811627375,0.00688181887541009,0.00654612039368276,0.00654612039368276,0.00704966811627375,0.00688181887541009,0.00654612039368276,0.00621042191195544,0.0063782711528191,0.00654612039368276,0.00654612039368276,0.00654612039368276,0.00654612039368276,0.00671396963454643,0.00654612039368276,0.00704966811627375,0.00704966811627375,0.00704966811627375,0.00688181887541009,0.00721751735713741,0.00704966811627375,0.00721751735713741,0.00688181887541009,0.00654612039368276,0.00654612039368276,0.00688181887541009,0.00688181887541009,0.00721751735713741,0.00654612039368276,0.0063782711528191,0.00621042191195544,0.00621042191195544,0.00587472343022812,0.00587472343022812,0.00587472343022812,0.00654612039368276,0.00654612039368276,0.00621042191195544
Channel ACC,-0.625,-0.65625,-0.71875,-0.78125
Channel ACC,-0.59375,-0.4375,-0.3125,-0.25
Channel ACC,0.46875,0.4375,0.5,0.5625

#Frame51 #Time(ms) 1522
Sensor 0
Channel EMG,0.00621042191195544,0.00587472343022812,0.00587472343022812,0.00587472343022812,0.00621042191195544,0.00587472343022812,0.00587472343022812,0.00621042191195544,0.0063782711528191,0.00621042191195544,0.00621042191195544,0.00621042191195544,0.00621042191195544,0.00621042191195544,0.00654612039368276,0.00688181887541009,0.00654612039368276,0.0063782711528191,0.00654612039368276,0.00688181887541009,0.00654612039368276,0.00621042191195544,0.00621042191195544,0.00621042191195544,0.00721751735713741,0.00721751735713741,0.00654612039368276,0.00688181887541009,0.00721751735713741,0.00688181887541009,0.00688181887541009,0.00721751735713741,0.00721751735713741,0.00755321583886473,0.00704966811627375,0.00654612039368276,0.00654612039368276,0.00688181887541009,0.00688181887541009,0.00704966811627375,0.00688181887541009,0.00654612039368276,0.00688181887541009,0.00688181887541009,0.00721751735713741,0.00704966811627375,0.00721751735713741,0.00738536659800107,0.00721751735713741,0.00688181887541009,0.00704966811627375,0.00721751735713741
Channel ACC,-0.78125,-0.75,-0.71875,-0.6875
Channel ACC,-0.25,-0.25,-0.28125,-0.3125
Channel ACC,0.5,0.3125,0.0625,-0.09375

#Frame52 #Time(ms) 1549
Sensor 0
Channel EMG,0.00721751735713741,0.00721751735713741,0.00721751735713741,0.00755321583886473,0.00738536659800107,0.00721751735713741,0.00721751735713741,0.00721751735713741,0.00688181887541009,0.00654612039368276,0.00654612039368276,0.00688181887541009,0.00654612039368276,0.00654612039368276,0.00654612039368276,0.00654612039368276,0.00654612039368276,0.00654612039368276,0.00654612039368276,0.0063782711528191,0.00654612039368276,0.00654612039368276,0.00654612039368276,0.0063782711528191,0.00654612039368276,0.00654612039368276,0.00621042191195544,0.00654612039368276,0.00654612039368276,0.00654612039368276,0.00654612039368276,0.00654612039368276,0.0063782711528191,0.00621042191195544,0.00654612039368276,0.00688181887541009,0.00688181887541009,0.00654612039368276,0.00621042191195544,0.00621042191195544,0.00621042191195544,0.00604257267109178,0.00621042191195544,0.0063782711528191,0.00654612039368276,0.00704966811627375,0.00688181887541009,0.00654612039368276,0.00721751735713741,0.00688181887541009,0.00654612039368276,0.00654612039368276
Channel ACC,-0.65625,-0.65625,-0.625,-0.625
Channel ACC,-0.34375,-0.40625,-0.46875,-0.5
Channel ACC,-0.125,-0.09375,-0.09375,-0.125

#Frame53 #Time(ms) 1576
Sensor 0
Channel EMG,0.00688181887541009,0.00721751735713741,0.00721751735713741,0.00688181887541009,0.00688181887541009,0.00704966811627375,0.00738536659800107,0.00721751735713741,0.00704966811627375,0.00721751735713741,0.00721751735713741,0.00788891432059205,0.00755321583886473,0.00721751735713741,0.00654612039368276,0.00688181887541009,0.00721751735713741,0.00721751735713741,0.00654612039368276,0.00654612039368276,0.00654612039368276,0.00654612039368276,0.00654612039368276,0.00654612039368276,0.00654612039368276,0.00654612039368276,0.00654612039368276,0.00654612039368276,0.00654612039368276,0.00654612039368276,0.00688181887541009,0.00704966811627375,0.00654612039368276,0.00721751735713741,0.00688181887541009,0.00654612039368276,0.00654612039368276,0.00654612039368276,0.00654612039368276,0.00621042191195544,0.00587472343022812,0.00587472343022812,0.00587472343022812,0.00587472343022812,0.00621042191195544,0.00621042191195544,0.00621042191195544,0.00621042191195544,0.00621042191195544,0.00587472343022812,0.00654612039368276,0.00654612039368276
Channel ACC,-0.59375,-0.59375,-0.625,-0.65625
Channel ACC,-0.53125,-0.5625,-0.5625,-0.53125
Channel ACC,-0.25,-0.375,-0.40625,-0.40625

#Frame54 #Time(ms) 1602
Sensor 0
Channel EMG,0.00654612039368276,0.00654612039368276,0.00621042191195544,0.00654612039368276,0.00721751735713741,0.00704966811627375,0.00654612039368276,0.00654612039368276,0.00604257267109178,0.00621042191195544,0.00621042191195544,0.00621042191195544,0.0063782711528191,0.00654612039368276,0.00621042191195544,0.0055390249485008,0.00621042191195544,0.0063782711528191,0.00654612039368276,0.00654612039368276,0.0063782711528191,0.00621042191195544,0.00621042191195544,0.00654612039368276,0.00654612039368276,0.00621042191195544,0.00621042191195544,0.00654612039368276,0.00621042191195544,0.00621042191195544,0.00654612039368276,0.00688181887541009,0.00688181887541009,0.00654612039368276,0.00621042191195544,0.00654612039368276,0.00654612039368276,0.00688181887541009,0.00688181887541009,0.00704966811627375,0.00688181887541009,0.00688181887541009,0.00721751735713741,0.00654612039368276,0.0063782711528191,0.00654612039368276,0.00688181887541009,0.00721751735713741,0.00654612039368276,0.00621042191195544,0.00654612039368276,0.00654612039368276
Channel ACC,-0.65625,-0.65625,-0.65625,-0.65625
Channel ACC,-0.53125,-0.5,-0.5,-0.46875
Channel ACC,-0.40625,-0.4375,-0.5,-0.46875

#Frame55 #Time(ms) 1630
Sensor 0
Channel EMG,0.00621042191195544,0.00654612039368276,0.00654612039368276,0.00654612039368276,0.00688181887541009,0.00654612039368276,0.00654612039368276,0.00654612039368276,0.00621042191195544,0.00654612039368276,0.00654612039368276,0.00621042191195544,0.00654612039368276,0.00654612039368276,0.00654612039368276,0.0063782711528191,0.00621042191195544,0.00621042191195544,0.00654612039368276,0.0063782711528191,0.0063782711528191,0.00654612039368276,0.00654612039368276,0.00654612039368276,0.00654612039368276,0.00654612039368276,0.00654612039368276,0.00688181887541009,0.00688181887541009,0.00721751735713741,0.00755321583886473,0.00755321583886473,0.00721751735713741,0.00721751735713741,0.00721751735713741,0.00721751735713741,0.00688181887541009,0.00688181887541009,0.00688181887541009,0.00704966811627375,0.00654612039368276,0.00654612039368276,0.00654612039368276,0.0063782711528191,0.00654612039368276,0.00654612039368276,0.00721751735713741,0.00704966811627375,0.00688181887541009,0.00654612039368276,0.00688181887541009,0.00704966811627375
Channel ACC,-0.65625,-0.65625,-0.65625,-0.6875
Channel ACC,-0.46875,-0.4375,-0.4375,-0.40625
Channel ACC,-0.4375,-0.40625,-0.375,-0.34375

#Frame56 #Time(ms) 1656
Sensor 0
Channel EMG,0.00721751735713741,0.00688181887541009,0.00654612039368276,0.00654612039368276,0.00654612039368276,0.00721751735713741,0.00721751735713741,0.00704966811627375,0.00704966811627375,0.00721751735713741,0.00688181887541009,0.00654612039368276,0.00688181887541009,0.00688181887541009,0.00721751735713741,0.00654612039368276,0.00654612039368276,0.00654612039368276,0.00654612039368276,0.00688181887541009,0.00688181887541009,0.00688181887541009,0.00704966811627375,0.00721751735713741,0.00704966811627375,0.00704966811627375,0.00688181887541009,0.0063782711528191,0.00621042191195544,0.00704966811627375,0.00688181887541009,0.00654612039368276,0.00654612039368276,0.00688181887541009,0.00688181887541009,0.00654612039368276,0.00621042191195544,0.00587472343022812,0.00654612039368276,0.00721751735713741,0.00688181887541009,0.00654612039368276,0.00688181887541009,0.00721751735713741,0.00721751735713741,0.00704966811627375,0.00721751735713741,0.00688181887541009,0.00704966811627375,0.00688181887541009,0.00654612039368276,0.00704966811627375
Channel ACC,-0.71875,-0.75,-0.75,-0.75
Channel ACC,-0.40625,-0.375,-0.34375,-0.28125
Channel ACC,-0.28125,-0.21875,-0.15625,-0.09375

#Frame57 #Time(ms) 1684
Sensor 0
Channel EMG,0.00721751735713741,0.00654612039368276,0.00654612039368276,0.0063782711528191,0.0063782711528191,0.0063782711528191,0.00654612039368276,0.00654612039368276,0.0063782711528191,0.0063782711528191,0.00587472343022812,0.00621042191195544,0.00654612039368276,0.00654612039368276,0.00604257267109178,0.00587472343022812,0.00587472343022812,0.00587472343022812,0.00654612039368276,0.00621042191195544,0.00654612039368276,0.00654612039368276,0.00621042191195544,0.0055390249485008,0.00587472343022812,0.0055390249485008,0.00520332646677348,0.00570687418936446,0.00621042191195544,0.0063782711528191,0.0063782711528191,0.00654612039368276,0.0063782711528191,0.00654612039368276,0.00654612039368276,0.0063782711528191,0.00621042191195544,0.0063782711528191,0.00654612039368276,0.0063782711528191,0.00621042191195544,0.00621042191195544,0.00688181887541009,0.00688181887541009,0.00654612039368276,0.00654612039368276,0.00654612039368276,0.00688181887541009,0.00654612039368276,0.00654612039368276,0.00704966811627375,0.00654612039368276
Channel ACC,-0.75,-0.75,-0.75,-0.71875
Channel ACC,-0.28125,-0.28125,-0.28125,-0.25
Channel ACC,-0.03125,0.0625,0.1875,0.375

#Frame58 #Time(ms) 1711
Sensor 0
Channel EMG,0.0063782711528191,0.00654612039368276,0.00654612039368276,0.00721751735713741,0.00654612039368276,0.00704966811627375,0.00755321583886473,0.00755321583886473,0.00688181887541009,0.00654612039368276,0.00654612039368276,0.00704966811627375,0.00721751735713741,0.00688181887541009,0.00704966811627375,0.00721751735713741,0.00654612039368276,0.00654612039368276,0.00654612039368276,0.00654612039368276,0.0063782711528191,0.00621042191195544,0.00587472343022812,0.00621042191195544,0.00654612039368276,0.00654612039368276,0.00654612039368276,0.00654612039368276,0.00654612039368276,0.00654612039368276,0.00654612039368276,0.00654612039368276,0.00654612039368276,0.00654612039368276,0.0063782711528191,0.00621042191195544,0.00654612039368276,0.00654612039368276,0.00654612039368276,0.00654612039368276,0.00688181887541009,0.00688181887541009,0.00721751735713741,0.00688181887541009,0.00688181887541009,0.00654612039368276,0.00621042191195544,0.00654612039368276,0.00688181887541009,0.00654612039368276,0.00621042191195544,0.0063782711528191
Channel ACC,-0.71875,-0.71875,-0.71875,-0.71875
Channel ACC,-0.25,-0.25,-0.25,-0.25
Channel ACC,0.625,0.90625,1.03125,1.21875

#Frame59 #Time(ms) 1738
Sensor 0
Channel EMG,0.00654612039368276,0.00688181887541009,0.00654612039368276,0.0063782711528191,0.00654612039368276,0.00654612039368276,0.00704966811627375,0.00704966811627375,0.00654612039368276,0.00654612039368276,0.00688181887541009,0.00688181887541009,0.00654612039368276,0.00688181887541009,0.00688181887541009,0.00688181887541009,0.00654612039368276,0.00654612039368276,0.00721751735713741,0.00721751735713741,0.00704966811627375,0.00654612039368276,0.00721751735713741,0.00721751735713741,0.00721751735713741,0.00721751735713741,0.00721751735713741,0.00721751735713741,0.00704966811627375,0.00688181887541009,0.00654612039368276,0.00654612039368276,0.00654612039368276,0.00688181887541009,0.00654612039368276,0.00654612039368276,0.00688181887541009,0.00688181887541009,0.00688181887541009,0.00654612039368276,0.00654612039368276,0.00621042191195544,0.00621042191195544,0.00654612039368276,0.00688181887541009,0.00654612039368276,0.00587472343022812,0.00587472343022812,0.00621042191195544,0.00621042191195544,0.00654612039368276,0.00688181887541009
Channel ACC,-0.75,-0.75,-0.78125,-0.75
Channel ACC,-0.25,-0.25,-0.28125,-0.28125
Channel ACC,1.34375,1.375,1.34375,1.28125

#Frame60 #Time(ms) 1765
Sensor 0
Channel EMG,0.00721751735713741,0.00755321583886473,0.00738536659800107,0.00738536659800107,0.00755321583886473,0.00721751735713741,0.00721751735713741,0.00721751735713741,0.00721751735713741,0.00721751735713741,0.00721751735713741,0.00704966811627375,0.00688181887541009,0.00688181887541009,0.00721751735713741,0.00755321583886473,0.00721751735713741,0.00755321583886473,0.00738536659800107,0.00721751735713741,0.00721751735713741,0.00721751735713741,0.00688181887541009,0.00688181887541009,0.00704966811627375,0.00704966811627375,0.00654612039368276,0.00688181887541009,0.00704966811627375,0.00704966811627375,0.00654612039368276,0.00621042191195544,0.00654612039368276,0.0063782711528191,0.00654612039368276,0.00654612039368276,0.00621042191195544,0.00604257267109178,0.00587472343022812,0.00654612039368276,0.00654612039368276,0.00688181887541009,0.00654612039368276,0.00621042191195544,0.00621042191195544,0.00621042191195544,0.00604257267109178,0.00587472343022812,0.00621042191195544,0.0063782711528191,0.00654612039368276,0.00654612039368276
Channel ACC,-0.75,-0.75,-0.71875,-0.71875
Channel ACC,-0.25,-0.25,-0.25,-0.28125
Channel ACC,1.1875,1.125,1.0625,1

#Frame61 #Time(ms) 1792
Sensor 0
Channel EMG,0.00654612039368276,0.00654612039368276,0.00704966811627375,0.00704966811627375,0.00688181887541009,0.00688181887541009,0.00654612039368276,0.00654612039368276,0.00654612039368276,0.00654612039368276,0.00704966811627375,0.00704966811627375,0.00721751735713741,0.00688181887541009,0.00704966811627375,0.00654612039368276,0.00621042191195544,0.00654612039368276,0.00688181887541009,0.00721751735713741,0.00704966811627375,0.00654612039368276,0.00654612039368276,0.00688181887541009,0.00654612039368276,0.00587472343022812,0.00587472343022812,0.00654612039368276,0.00704966811627375,0.00654612039368276,0.00654612039368276,0.0063782711528191,0.00654612039368276,0.00654612039368276,0.00654612039368276,0.00654612039368276,0.00621042191195544,0.00570687418936446,0.0055390249485008,0.00587472343022812,0.00654612039368276,0.00654612039368276,0.00587472343022812,0.00587472343022812,0.00621042191195544,0.00654612039368276,0.00621042191195544,0.00587472343022812,0.00621042191195544,0.0063782711528191,0.00654612039368276,0.00621042191195544
Channel ACC,-0.71875,-0.6875,-0.65625,-0.625
Channel ACC,-0.28125,-0.3125,-0.34375,-0.375
Channel ACC,0.90625,0.875,0.78125,0.6875

#Frame62 #Time(ms) 1819
Sensor 0
Channel EMG,0.00654612039368276,0.00654612039368276,0.00654612039368276,0.00621042191195544,0.00654612039368276,0.00654612039368276,0.00654612039368276,0.00721751735713741,0.00654612039368276,0.00688181887541009,0.00688181887541009,0.0063782711528191,0.0063782711528191,0.00654612039368276,0.00721751735713741,0.00721751735713741,0.00721751735713741,0.00688181887541009,0.00721751735713741,0.00704966811627375,0.00654612039368276,0.00621042191195544,0.00654612039368276,0.00654612039368276,0.00721751735713741,0.00704966811627375,0.00704966811627375,0.00755321583886473,0.00721751735713741,0.00721751735713741,0.00755321583886473,0.00755321583886473,0.00721751735713741,0.00755321583886473,0.00704966811627375,0.00704966811627375,0.00654612039368276,0.00654612039368276,0.00654612039368276,0.00704966811627375,0.00704966811627375,0.00654612039368276,0.00688181887541009,0.00688181887541009,0.00721751735713741,0.00654612039368276,0.00654612039368276,0.00654612039368276,0.00654612039368276,0.00721751735713741,0.00704966811627375,0.00721751735713741
Channel ACC,-0.5625,-0.5,-0.4375,-0.375
Channel ACC,-0.4375,-0.46875,-0.46875,-0.4375
Channel ACC,0.59375,0.53125,0.46875,0.53125

#Frame63 #Time(ms) 1846
Sensor 0
Channel EMG,0.00704966811627375,0.00688181887541009,0.00654612039368276,0.00654612039368276,0.00688181887541009,0.00688181887541009,0.00688181887541009,0.00688181887541009,0.00654612039368276,0.00688181887541009,0.00654612039368276,0.00654612039368276,0.00654612039368276,0.00688181887541009,0.00688181887541009,0.00688181887541009,0.00654612039368276,0.00654612039368276,0.00704966811627375,0.00721751735713741,0.00654612039368276,0.00654612039368276,0.00654612039368276,0.00587472343022812,0.00621042191195544,0.0063782711528191,0.00587472343022812,0.00621042191195544,0.0063782711528191,0.00587472343022812,0.00621042191195544,0.00621042191195544,0.0055390249485008,0.00587472343022812,0.00587472343022812,0.00621042191195544,0.00621042191195544,0.00587472343022812,0.00621042191195544,0.0063782711528191,0.00654612039368276,0.00654612039368276,0.0063782711528191,0.0063782711528191,0.0063782711528191,0.00621042191195544,0.00621042191195544,0.00621042191195544,0.00621042191195544,0.0063782711528191,0.00654612039368276,0.00654612039368276
Channel ACC,-0.40625,-0.46875,-0.53125,-0.625
Channel ACC,-0.40625,-0.34375,-0.25,-0.09375
Channel ACC,0.8125,1.125,1.3125,1.3125

#Frame64 #Time(ms) 1873
Sensor 0
Channel EMG,0.00721751735713741,0.00654612039368276,0.00654612039368276,0.00654612039368276,0.00654612039368276,0.00654612039368276,0.00721751735713741,0.00721751735713741,0.00654612039368276,0.00654612039368276,0.00688181887541009,0.00654612039368276,0.00704966811627375,0.00721751735713741,0.00721751735713741,0.00772106507972839,0.00772106507972839,0.00755321583886473,0.00721751735713741,0.00721751735713741,0.00721751735713741,0.00721751735713741,0.00721751735713741,0.00721751735713741,0.00721751735713741,0.00688181887541009,0.00654612039368276,0.00704966811627375,0.00755321583886473,0.00755321583886473,0.00721751735713741,0.00721751735713741,0.00721751735713741,0.00755321583886473,0.00755321583886473,0.00721751735713741,0.00721751735713741,0.00721751735713741,0.00721751735713741,0.00654612039368276,0.00654612039368276,0.00654612039368276,0.00654612039368276,0.00688181887541009,0.00755321583886473,0.00721751735713741,0.00721751735713741,0.00654612039368276,0.00654612039368276,0.00654612039368276,0.00688181887541009,0.00654612039368276
Channel ACC,-0.65625,-0.71875,-0.8125,-0.90625
Channel ACC,-0.03125,0.15625,0.3125,0.40625
Channel ACC,1.28125,1.21875,1.1875,1.25

#Frame65 #Time(ms) 1900
Sensor 0
Channel EMG,0.00654612039368276,0.00621042191195544,0.00654612039368276,0.00654612039368276,0.00654612039368276,0.00654612039368276,0.00654612039368276,0.00688181887541009,0.00654612039368276,0.00621042191195544,0.00654612039368276,0.00654612039368276,0.00704966811627375,0.00654612039368276,0.0063782711528191,0.0063782711528191,0.00654612039368276,0.00621042191195544,0.00621042191195544,0.00621042191195544,0.00654612039368276,0.00654612039368276,0.00654612039368276,0.00621042191195544,0.00587472343022812,0.00621042191195544,0.0063782711528191,0.00654612039368276,0.00654612039368276,0.00621042191195544,0.00621042191195544,0.0063782711528191,0.00654612039368276,0.00654612039368276,0.00654612039368276,0.00704966811627375,0.00688181887541009,0.00688181887541009,0.00688181887541009,0.00654612039368276,0.00704966811627375,0.00721751735713741,0.00688181887541009,0.00654612039368276,0.00688181887541009,0.00688181887541009,0.00654612039368276,0.00654612039368276,0.00704966811627375,0.00704966811627375,0.00721751735713741,0.00688181887541009
Channel ACC,-0.96875,-1,-0.96875,-0.90625
Channel ACC,0.46875,0.5,0.46875,0.375
Channel ACC,1.28125,1.09375,0.8125,0.53125

#Frame66 #Time(ms) 1927
Sensor 0
Channel EMG,0.00704966811627375,0.00721751735713741,0.00721751735713741,0.00688181887541009,0.00688181887541009,0.00654612039368276,0.00654612039368276,0.00704966811627375,0.00721751735713741,0.00654612039368276,0.0063782711528191,0.00654612039368276,0.00721751735713741,0.00721751735713741,0.00721751735713741,0.00704966811627375,0.00654612039368276,0.00654612039368276,0.00688181887541009,0.00654612039368276,0.0063782711528191,0.0063782711528191,0.00654612039368276,0.00654612039368276,0.00654612039368276,0.00654612039368276,0.00621042191195544,0.00587472343022812,0.00654612039368276,0.00654612039368276,0.0063782711528191,0.00621042191195544,0.00587472343022812,0.00654612039368276,0.00654612039368276,0.00688181887541009,0.00688181887541009,0.00654612039368276,0.00654612039368276,0.00704966811627375,0.00654612039368276,0.0063782711528191,0.00621042191195544,0.00621042191195544,0.0063782711528191,0.0063782711528191,0.00654612039368276,0.00654612039368276,0.00688181887541009,0.00654612039368276,0.00587472343022812,0.00587472343022812
Channel ACC,-0.8125,-0.75,-0.71875,-0.71875
Channel ACC,0.28125,0.21875,0.125,0.09375
Channel ACC,0.28125,0.125,0.0625,0.03125

#Frame67 #Time(ms) 1954
Sensor 0
Channel EMG,0.00621042191195544,0.0063782711528191,0.00587472343022812,0.00570687418936446,0.0055390249485008,0.00587472343022812,0.00621042191195544,0.00654612039368276,0.0063782711528191,0.0063782711528191,0.00654612039368276,0.00654612039368276,0.00654612039368276,0.00654612039368276,0.00654612039368276,0.00621042191195544,0.00621042191195544,0.0063782711528191,0.00654612039368276,0.00654612039368276,0.00654612039368276,0.00688181887541009,0.00688181887541009,0.00654612039368276,0.00721751735713741,0.00755321583886473,0.00721751735713741,0.00721751735713741,0.00721751735713741,0.00721751735713741,0.00654612039368276,0.00654612039368276,0.00621042191195544,0.0063782711528191,0.0063782711528191,0.00688181887541009,0.00654612039368276,0.00621042191195544,0.00654612039368276,0.00654612039368276,0.00654612039368276,0.00688181887541009,0.00721751735713741,0.00688181887541009,0.00688181887541009,0.00654612039368276,0.00654612039368276,0.00621042191195544,0.00688181887541009,0.00654612039368276,0.00654612039368276,0.00654612039368276
Channel ACC,-0.75,-0.71875,-0.65625,-0.625
Channel ACC,0,-0.09375,-0.1875,-0.3125
Channel ACC,0,-0.125,-0.375,-0.6875

#Frame68 #Time(ms) 1981
Sensor 0
Channel EMG,0.00654612039368276,0.00654612039368276,0.00654612039368276,0.00688181887541009,0.00654612039368276,0.0063782711528191,0.00621042191195544,0.00654612039368276,0.00621042191195544,0.00621042191195544,0.00654612039368276,0.00704966811627375,0.00755321583886473,0.00721751735713741,0.00721751735713741,0.00721751735713741,0.00721751735713741,0.00688181887541009,0.00688181887541009,0.00721751735713741,0.00721751735713741,0.00721751735713741,0.00721751735713741,0.00704966811627375,0.00721751735713741,0.00721751735713741,0.00721751735713741,0.00721751735713741,0.00704966811627375,0.00688181887541009,0.00654612039368276,0.00721751735713741,0.00654612039368276,0.00688181887541009,0.00654612039368276,0.00654612039368276,0.00688181887541009,0.00721751735713741,0.00721751735713741,0.00688181887541009,0.00654612039368276,0.00654612039368276,0.00704966811627375,0.00704966811627375,0.00654612039368276,0.00654612039368276,0.00654612039368276,0.00688181887541009,0.00654612039368276,0.00621042191195544,0.00621042191195544,0.00621042191195544
Channel ACC,-0.65625,-0.6875,-0.71875,-0.75
Channel ACC,-0.375,-0.34375,-0.3125,-0.25
Channel ACC,-1,-1.28125,-1.40625,-1.375

#Frame69 #Time(ms) 2008
Sensor 0
Channel EMG,0.00621042191195544,0.00654612039368276,0.00654612039368276,0.00654612039368276,0.00654612039368276,0.00654612039368276,0.00604257267109178,0.00654612039368276,0.00654612039368276,0.00621042191195544,0.00654612039368276,0.00688181887541009,0.00654612039368276,0.0063782711528191,0.00587472343022812,0.0063782711528191,0.00654612039368276,0.00654612039368276,0.0063782711528191,0.00654612039368276,0.0063782711528191,0.00654612039368276,0.00654612039368276,0.00721751735713741,0.00721751735713741,0.00654612039368276,0.00654612039368276,0.00654612039368276,0.00654612039368276,0.00621042191195544,0.00654612039368276,0.00688181887541009,0.00654612039368276,0.00704966811627375,0.00688181887541009,0.00688181887541009,0.00688181887541009,0.00721751735713741,0.00721751735713741,0.00772106507972839,0.00772106507972839,0.00788891432059205,0.00755321583886473,0.00721751735713741,0.00704966811627375,0.00654612039368276,0.00621042191195544,0.00621042191195544,0.00654612039368276,0.00654612039368276,0.0063782711528191,0.00654612039368276
Channel ACC,-0.75,-0.75,-0.75,-0.71875
Channel ACC,-0.1875,-0.09375,-0.0625,0
Channel ACC,-1.25,-1.0625,-0.9375,-0.75

#Frame70 #Time(ms) 2035
Sensor 0
Channel EMG,0.00654612039368276,0.00654612039368276,0.00654612039368276,0.00654612039368276,0.00721751735713741,0.00721751735713741,0.00721751735713741,0.00688181887541009,0.00654612039368276,0.00688181887541009,0.00654612039368276,0.00654612039368276,0.00688181887541009,0.00654612039368276,0.00688181887541009,0.00704966811627375,0.00688181887541009,0.00688181887541009,0.00704966811627375,0.00688181887541009,0.00621042191195544,0.00654612039368276,0.00654612039368276,0.00654612039368276,0.00654612039368276,0.00654612039368276,0.00654612039368276,0.00654612039368276,0.00654612039368276,0.00654612039368276,0.00654612039368276,0.00704966811627375,0.00704966811627375,0.00721751735713741,0.00688181887541009,0.00688181887541009,0.00654612039368276,0.00688181887541009,0.00654612039368276,0.00654612039368276,0.00654612039368276,0.00654612039368276,0.00654612039368276,0.00654612039368276,0.0063782711528191,0.00654612039368276,0.00654612039368276,0.00621042191195544,0.00587472343022812,0.00621042191195544,0.00621042191195544,0.00587472343022812
Channel ACC,-0.71875,-0.65625,-0.625,-0.59375
Channel ACC,0.0625,0.09375,0.09375,0.09375
Channel ACC,-0.5,-0.3125,-0.125,0.03125

#Frame71 #Time(ms) 2062
Sensor 0
Channel EMG,0.00587472343022812,0.0063782711528191,0.0063782711528191,0.00621042191195544,0.00621042191195544,0.0063782711528191,0.00654612039368276,0.00721751735713741,0.00688181887541009,0.00654612039368276,0.00654612039368276,0.00654612039368276,0.00654612039368276,0.00621042191195544,0.00587472343022812,0.00587472343022812,0.00621042191195544,0.00621042191195544,0.00621042191195544,0.00587472343022812,0.00604257267109178,0.00654612039368276,0.00688181887541009,0.00654612039368276,0.00654612039368276,0.00688181887541009,0.00688181887541009,0.00654612039368276,0.00654612039368276,0.00654612039368276,0.00654612039368276,0.0063782711528191,0.00621042191195544,0.00654612039368276,0.00621042191195544,0.00587472343022812,0.00587472343022812,0.00570687418936446,0.00587472343022812,0.00604257267109178,0.00621042191195544,0.00621042191195544,0.00621042191195544,0.00621042191195544,0.0063782711528191,0.00587472343022812,0.00604257267109178,0.00587472343022812,0.00587472343022812,0.00621042191195544,0.00621042191195544,0.00654612039368276
Channel ACC,-0.53125,-0.46875,-0.40625,-0.3125
Channel ACC,0.125,0.09375,0.0625,-0.03125
Channel ACC,0.09375,0.15625,0.25,0.40625

#Frame72 #Time(ms) 2089
Sensor 0
Channel EMG,0.00654612039368276,0.00654612039368276,0.00654612039368276,0.00654612039368276,0.00654612039368276,0.00704966811627375,0.00688181887541009,0.00721751735713741,0.00654612039368276,0.00688181887541009,0.00654612039368276,0.00688181887541009,0.00688181887541009,0.00721751735713741,0.00688181887541009,0.00654612039368276,0.00721751735713741,0.00721751735713741,0.00721751735713741,0.00688181887541009,0.00654612039368276,0.00654612039368276,0.00654612039368276,0.00654612039368276,0.00688181887541009,0.00704966811627375,0.00654612039368276,0.00654612039368276,0.00654612039368276,0.00688181887541009,0.00654612039368276,0.00654612039368276,0.00654612039368276,0.00688181887541009,0.00654612039368276,0.00654612039368276,0.00654612039368276,0.0063782711528191,0.0063782711528191,0.00654612039368276,0.00654612039368276,0.00654612039368276,0.00654612039368276,0.00654612039368276,0.00704966811627375,0.00721751735713741,0.00654612039368276,0.00587472343022812,0.0055390249485008,0.00520332646677348,0.00587472343022812,0.00621042191195544
Channel ACC,-0.1875,-0.0625,-0.03125,0
Channel ACC,-0.1875,-0.28125,-0.3125,-0.34375
Channel ACC,0.53125,0.71875,0.8125,1.0625

#Frame73 #Time(ms) 2116
Sensor 0
Channel EMG,0.0063782711528191,0.0063782711528191,0.00621042191195544,0.00654612039368276,0.00654612039368276,0.00654612039368276,0.00654612039368276,0.00654612039368276,0.0063782711528191,0.00654612039368276,0.00654612039368276,0.00654612039368276,0.00721751735713741,0.00721751735713741,0.00704966811627375,0.00654612039368276,0.00621042191195544,0.00621042191195544,0.00654612039368276,0.00704966811627375,0.00721751735713741,0.00721751735713741,0.00721751735713741,0.00704966811627375,0.00721751735713741,0.00688181887541009,0.00654612039368276,0.00654612039368276,0.00654612039368276,0.00654612039368276,0.00654612039368276,0.00654612039368276,0.00654612039368276,0.00688181887541009,0.00688181887541009,0.00721751735713741,0.00688181887541009,0.00721751735713741,0.00721751735713741,0.00688181887541009,0.00654612039368276,0.00654612039368276,0.00654612039368276,0.00654612039368276,0.00654612039368276,0.00704966811627375,0.00721751735713741,0.00721751735713741,0.00704966811627375,0.00688181887541009,0.00721751735713741,0.00721751735713741
Channel ACC,0.03125,0.09375,0.15625,0.1875
Channel ACC,-0.40625,-0.5,-0.5625,-0.65625
Channel ACC,1.3125,1.53125,1.65625,1.6875

#Frame74 #Time(ms) 2143
Sensor 0
Channel EMG,0.00755321583886473,0.00755321583886473,0.00721751735713741,0.00704966811627375,0.00688181887541009,0.00688181887541009,0.00704966811627375,0.00688181887541009,0.00688181887541009,0.00721751735713741,0.00704966811627375,0.00688181887541009,0.00721751735713741,0.00721751735713741,0.00721751735713741,0.00654612039368276,0.00654612039368276,0.00654612039368276,0.00654612039368276,0.00654612039368276,0.0063782711528191,0.0063782711528191,0.00654612039368276,0.00621042191195544,0.00604257267109178,0.00621042191195544,0.00621042191195544,0.00587472343022812,0.00621042191195544,0.00654612039368276,0.00654612039368276,0.00621042191195544,0.00621042191195544,0.00621042191195544,0.00621042191195544,0.00621042191195544,0.00654612039368276,0.00654612039368276,0.00704966811627375,0.00688181887541009,0.00654612039368276,0.00621042191195544,0.00587472343022812,0.00587472343022812,0.00621042191195544,0.0063782711528191,0.00621042191195544,0.0063782711528191,0.00654612039368276,0.00587472343022812,0.0063782711528191,0.00621042191195544
Channel ACC,0.1875,0.21875,0.25,0.28125
Channel ACC,-0.75,-0.8125,-0.875,-0.875
Channel ACC,1.6875,1.65625,1.59375,1.53125

#Frame75 #Time(ms) 2170
Sensor 0
Channel EMG,0.00654612039368276,0.0063782711528191,0.00587472343022812,0.00587472343022812,0.00654612039368276,0.00688181887541009,0.00654612039368276,0.00654612039368276,0.00654612039368276,0.00688181887541009,0.00721751735713741,0.00688181887541009,0.00654612039368276,0.00654612039368276,0.00654612039368276,0.00654612039368276,0.00688181887541009,0.00654612039368276,0.00721751735713741,0.00721751735713741,0.00654612039368276,0.00654612039368276,0.00688181887541009,0.00654612039368276,0.00688181887541009,0.00654612039368276,0.00654612039368276,0.00654612039368276,0.0063782711528191,0.00654612039368276,0.00688181887541009,0.00654612039368276,0.00654612039368276,0.00654612039368276,0.0063782711528191,0.0063782711528191,0.00621042191195544,0.00621042191195544,0.00654612039368276,0.00654612039368276,0.00621042191195544,0.00654612039368276,0.00654612039368276,0.00621042191195544,0.00654612039368276,0.00654612039368276,0.00654612039368276,0.00654612039368276,0.00654612039368276,0.00621042191195544,0.00587472343022812,0.00587472343022812
Channel ACC,0.28125,0.25,0.21875,0.1875
Channel ACC,-0.8125,-0.78125,-0.65625,-0.53125
Channel ACC,1.53125,1.53125,1.46875,1.375

#Frame76 #Time(ms) 2197
Sensor 0
Channel EMG,0.00587472343022812,0.00621042191195544,0.00621042191195544,0.00621042191195544,0.00621042191195544,0.00654612039368276,0.0063782711528191,0.00654612039368276,0.00654612039368276,0.00654612039368276,0.00654612039368276,0.00654612039368276,0.00654612039368276,0.00654612039368276,0.00654612039368276,0.00654612039368276,0.00654612039368276,0.00654612039368276,0.00654612039368276,0.00688181887541009,0.00654612039368276,0.00688181887541009,0.00654612039368276,0.00654612039368276,0.00654612039368276,0.00654612039368276,0.00654612039368276,0.00621042191195544,0.00587472343022812,0.00621042191195544,0.00654612039368276,0.00654612039368276,0.00654612039368276,0.00654612039368276,0.00654612039368276,0.00688181887541009,0.00654612039368276,0.00688181887541009,0.00654612039368276,0.00654612039368276,0.00654612039368276,0.00704966811627375,0.00688181887541009,0.00654612039368276,0.00654612039368276,0.00688181887541009,0.00688181887541009,0.00654612039368276,0.00721751735713741,0.00654612039368276,0.00621042191195544,0.00621042191195544
Channel ACC,0.125,0.125,0.125,0.15625
Channel ACC,-0.46875,-0.46875,-0.5,-0.53125
Channel ACC,1.21875,1.09375,1,1

#Frame77 #Time(ms) 2223
Sensor 0
Channel EMG,0.00654612039368276,0.00654612039368276,0.00654612039368276,0.00654612039368276,0.00654612039368276,0.00654612039368276,0.00654612039368276,0.00688181887541009,0.00721751735713741,0.00721751735713741,0.00721751735713741,0.00654612039368276,0.00704966811627375,0.00721751735713741,0.00704966811627375,0.00721751735713741,0.00688181887541009,0.00654612039368276,0.00654612039368276,0.00654612039368276,0.00654612039368276,0.00654612039368276,0.00604257267109178,0.0063782711528191,0.00688181887541009,0.00704966811627375,0.00621042191195544,0.00587472343022812,0.00587472343022812,0.0063782711528191,0.00654612039368276,0.00721751735713741,0.00721751735713741,0.00704966811627375,0.00688181887541009,0.00688181887541009,0.00721751735713741,0.00688181887541009,0.0063782711528191,0.00654612039368276,0.00654612039368276,0.00654612039368276,0.00654612039368276,0.00654612039368276,0.00654612039368276,0.00688181887541009,0.00721751735713741,0.00755321583886473,0.00721751735713741,0.00654612039368276,0.00654612039368276,0.00688181887541009
Channel ACC,0.15625,0.15625,0.15625,0.125
Channel ACC,-0.5625,-0.5625,-0.53125,-0.5
Channel ACC,1.15625,1.3125,1.4375,1.4375

#Frame78 #Time(ms) 2250
Sensor 0
Channel EMG,0.00688181887541009,0.00654612039368276,0.00654612039368276,0.00721751735713741,0.00654612039368276,0.00621042191195544,0.00587472343022812,0.00621042191195544,0.00621042191195544,0.00621042191195544,0.00621042191195544,0.00621042191195544,0.00621042191195544,0.00621042191195544,0.00621042191195544,0.00587472343022812,0.00587472343022812,0.00621042191195544,0.0063782711528191,0.00654612039368276,0.00654612039368276,0.00621042191195544,0.00621042191195544,0.00587472343022812,0.00604257267109178,0.00621042191195544,0.00654612039368276,0.00654612039368276,0.00654612039368276,0.00721751735713741,0.00721751735713741,0.00704966811627375,0.00688181887541009,0.00654612039368276,0.00654612039368276,0.00721751735713741,0.00704966811627375,0.00654612039368276,0.00688181887541009,0.00688181887541009,0.00654612039368276,0.0063782711528191,0.00654612039368276,0.00654612039368276,0.00621042191195544,0.00621042191195544,0.00654612039368276,0.00621042191195544,0.00621042191195544,0.0055390249485008,0.00587472343022812,0.00587472343022812
Channel ACC,0.09375,0.09375,0.09375,0.09375
Channel ACC,-0.46875,-0.46875,-0.46875,-0.5
Channel ACC,1.40625,1.28125,1.1875,1.0625

#Frame79 #Time(ms) 2278
Sensor 0
Channel EMG,0.00587472343022812,0.00621042191195544,0.00587472343022812,0.00621042191195544,0.00621042191195544,0.00654612039368276,0.00654612039368276,0.00654612039368276,0.00654612039368276,0.00621042191195544,0.00654612039368276,0.00654612039368276,0.00654612039368276,0.00654612039368276,0.00654612039368276,0.00654612039368276,0.00654612039368276,0.00654612039368276,0.00688181887541009,0.00654612039368276,0.00654612039368276,0.00688181887541009,0.00688181887541009,0.00704966811627375,0.00654612039368276,0.00654612039368276,0.00654612039368276,0.00721751735713741,0.00721751735713741,0.00688181887541009,0.00688181887541009,0.00755321583886473,0.00772106507972839,0.00788891432059205,0.00788891432059205,0.00788891432059205,0.00721751735713741,0.00688181887541009,0.00721751735713741,0.00654612039368276,0.00621042191195544,0.00688181887541009,0.00721751735713741,0.00721751735713741,0.00721751735713741,0.00688181887541009,0.00721751735713741,0.00721751735713741,0.00688181887541009,0.00688181887541009,0.00704966811627375,0.00688181887541009
Channel ACC,0.09375,0.0625,0.03125,0
Channel ACC,-0.46875,-0.4375,-0.40625,-0.375
Channel ACC,0.96875,0.96875,1,1.03125

#Frame80 #Time(ms) 2304
Sensor 0
Channel EMG,0.00654612039368276,0.00654612039368276,0.00688181887541009,0.00688181887541009,0.00654612039368276,0.00654612039368276,0.00654612039368276,0.00654612039368276,0.0063782711528191,0.00621042191195544,0.00621042191195544,0.00654612039368276,0.00654612039368276,0.00654612039368276,0.00654612039368276,0.00688181887541009,0.00721751735713741,0.00671396963454643,0.00654612039368276,0.00654612039368276,0.00688181887541009,0.00654612039368276,0.00654612039368276,0.00654612039368276,0.00704966811627375,0.00704966811627375,0.00704966811627375,0.0063782711528191,0.00621042191195544,0.00654612039368276,0.00688181887541009,0.00721751735713741,0.00704966811627375,0.00654612039368276,0.00654612039368276,0.00654612039368276,0.00654612039368276,0.00688181887541009,0.00721751735713741,0.00654612039368276,0.00704966811627375,0.00721751735713741,0.00704966811627375,0.00721751735713741,0.00721751735713741,0.00721751735713741,0.00654612039368276,0.00654612039368276,0.00654612039368276,0.00721751735713741,0.00721751735713741,0.00654612039368276
Channel ACC,0,0,0,0
Channel ACC,-0.375,-0.375,-0.375,-0.375
Channel ACC,1.03125,0.96875,0.9375,0.90625

#Frame81 #Time(ms) 2332
Sensor 0
Channel EMG,0.00654612039368276,0.00654612039368276,0.00654612039368276,0.00654612039368276,0.00654612039368276,0.00654612039368276,0.00654612039368276,0.00704966811627375,0.00654612039368276,0.00688181887541009,0.00654612039368276,0.00654612039368276,0.00654612039368276,0.00654612039368276,0.00688181887541009,0.00688181887541009,0.00688181887541009,0.00688181887541009,0.00654612039368276,0.0063782711528191,0.00654612039368276,0.0063782711528191,0.00688181887541009,0.00688181887541009,0.00688181887541009,0.00721751735713741,0.00688181887541009,0.00654612039368276,0.00654612039368276,0.00654612039368276,0.00654612039368276,0.00654612039368276,0.00621042191195544,0.00621042191195544,0.0063782711528191,0.00654612039368276,0.00654612039368276,0.00654612039368276,0.00654612039368276,0.00654612039368276,0.00688181887541009,0.00688181887541009,0.00654612039368276,0.00654612039368276,0.00654612039368276,0.00621042191195544,0.00621042191195544,0.0063782711528191,0.0063782711528191,0.00587472343022812,0.00621042191195544,0.00621042191195544
Channel ACC,-0.03125,-0.03125,-0.03125,-0.0625
Channel ACC,-0.34375,-0.34375,-0.3125,-0.28125
Channel ACC,0.875,0.875,0.84375,0.8125

#Frame82 #Time(ms) 2359
Sensor 0
Channel EMG,0.00621042191195544,0.00621042191195544,0.00570687418936446,0.00520332646677348,0.0055390249485008,0.00570687418936446,0.00520332646677348,0.00520332646677348,0.0055390249485008,0.00570687418936446,0.0055390249485008,0.00520332646677348,0.00503547722590982,0.00503547722590982,0.00486762798504616,0.00453192950331884,0.00419623102159152,0.00386053253986419,0.00419623102159152,0.00419623102159152,0.00453192950331884,0.00486762798504616,0.00520332646677348,0.00587472343022812,0.00755321583886473,0.0229953459983215,0.0864423590447852,0.142839703974975,0.14351110093843,0.121019302662699,0.105073624780652,0.0938277256427863,0.0817425803006027,0.0699931334401465,0.0585793850614176,0.0485084306095979,0.0387731746395056,0.028702220187686,0.00654612039368276,0.588982986190585,5.14139009689479,5.48783093003738,5.48917372396429,5.48984512092775,5.49018081940948,5.4905165178912,5.4905165178912,5.4905165178912,5.48984512092775,5.48984512092775,5.4905165178912,5.4905165178912
Channel ACC,-0.0625,-0.09375,-0.0625,0.125
Channel ACC,-0.25,-0.25,-0.28125,-0.40625
Channel ACC,0.8125,0.84375,0.96875,2.25

#Frame83 #Time(ms) 2386
Sensor 0
Channel EMG,5.4905165178912,5.4905165178912,5.49018081940948,-0.306660563057908,-5.44284733348592,-5.48984512092775,-5.49185931181811,-5.49269855802243,-5.49269855802243,-5.49303425650416,-5.49320210574502,-5.49320210574502,-5.49320210574502,-5.49320210574502,-5.49336995498589,-5.49353780422675,-5.49370565346761,-5.49353780422675,-5.49336995498589,-5.49353780422675,-5.49370565346761,-5.49353780422675,-5.49353780422675,-5.49353780422675,-5.49370565346761,-5.49370565346761,-5.49353780422675,-5.49370565346761,-5.49370565346761,-5.49370565346761,-5.49353780422675,-5.49370565346761,-5.49353780422675,-5.49353780422675,-5.49353780422675,-5.49370565346761,-5.49370565346761,-5.49370565346761,-5.49387350270848,-5.49370565346761,-5.49353780422675,-5.49370565346761,-5.49387350270848,-5.49387350270848,-5.49370565346761,-5.49387350270848,-5.49353780422675,-5.49353780422675,-5.49370565346761,-5.49387350270848,-5.49370565346761,-5.49387350270848
Channel ACC,-0.40625,0.125,0,-0.125
Channel ACC,-0.3125,-0.34375,-0.40625,-0.40625
Channel ACC,2.28125,0.78125,0.71875,0.84375

#Frame84 #Time(ms) 2413
Sensor 0
Channel EMG,-5.49370565346761,-5.49387350270848,-5.49370565346761,-5.49404135194934,-5.49370565346761,-5.49370565346761,-5.49353780422675,-5.49353780422675,-4.86863508049134,-4.24625009536889,-3.64467841611353,-3.06710917830167,-2.51857785915923,-2.00294499122606,-1.5168535896849,-1.05963225757229,-0.628595407034409,-0.22374303807126,0.154589150835431,0.505729762722209,0.831525139238575,1.13432516975662,1.41312275883116,1.66926070038911,1.90492103456168,2.12077515831235,2.3173266193637,2.49524681467918,2.65722133211261,2.80291447318227,2.93182269016556,3.04629587243458,3.1473411154345,3.23797970550088,3.31703669794766,3.38367284657053,3.43872739757382,3.48371099412528,3.51929503318837,3.54615091172656,3.56763561455711,3.58207064927138,3.58777752346075,3.58760967421988,3.58274204623484,3.5736781872282,3.55756466010529,3.53641565575647,3.51358815899901,3.4895857175555,3.46256198977646,3.43067063401236
Channel ACC,-0.125,-0.125,-0.15625,-0.1875
Channel ACC,-0.40625,-0.34375,-0.21875,-0.15625
Channel ACC,0.875,0.8125,0.78125,0.78125

#Frame85 #Time(ms) 2440
Sensor 0
Channel EMG,3.39542229343099,3.35815976195926,3.31854734111543,3.28027771419852,3.24100099183642,3.19668879224842,3.15136949721523,3.10840009155413,3.06408789196612,3.02111848630503,2.97680628671702,2.93215838864729,2.88818188754101,2.84185549706264,2.79687190051118,2.75390249485008,2.71194018463416,2.66913862821393,2.62767986572061,2.58941023880369,2.55365835049973,2.52394903486687,2.50749980926223,2.52898451209278,2.61223773556115,2.75088120851453,2.92846570534829,3.07281605249104,2.72234683756771,1.35202563515679,-0.479545281147478,-2.12463569085222,-3.49176775768673,-4.67510490577554,-5.47927061875334,-5.49185931181811,-5.49303425650416,-5.49353780422675,-5.49370565346761,-5.49387350270848,-5.49404135194934,-5.49437705043107,-5.49404135194934,-5.4942092011902,-5.4942092011902,-5.4942092011902,-5.49437705043107,-5.49437705043107,-5.4942092011902,-5.49437705043107,-5.4942092011902,-5.4942092011902
Channel ACC,-0.1875,-0.1875,-0.21875,-0.25
Channel ACC,-0.15625,-0.125,-0.09375,-0.09375
Channel ACC,0.8125,0.8125,0.8125,0.875

#Frame86 #Time(ms) 2467
Sensor 0
Channel EMG,-5.4942092011902,-5.4942092011902,-5.4942092011902,-5.4942092011902,-5.20399786373693,-4.6900434882124,-4.2267795834287,-3.78500038147555,-3.34120698863203,-2.84655527580682,-2.35643549248493,-1.91633478294041,-1.50174715800717,-1.07775997558556,-0.669550621805142,-0.250934615091173,0.190844586861982,0.644708934157321,1.13633936064698,1.593057145037,1.88645761806668,2.17096208133059,2.60350957503624,3.03152513923857,3.38602273594263,3.74052033264668,4.12858777752346,4.52605477988861,4.89901579308766,5.21390096894789,5.48212405584802,5.48850232700084,5.48950942244602,5.48984512092775,5.48984512092775,5.48984512092775,5.49018081940948,5.49018081940948,5.4905165178912,5.4905165178912,5.49018081940948,5.49034866865034,5.48984512092775,5.48984512092775,5.4905165178912,5.49018081940948,5.48984512092775,5.48984512092775,5.49018081940948,5.48984512092775,5.48984512092775,5.49018081940948
Channel ACC,-0.28125,-0.28125,-0.28125,-0.28125
Channel ACC,-0.09375,-0.09375,-0.0625,-0.0625
Channel ACC,0.90625,0.90625,0.90625,0.90625

#Frame87 #Time(ms) 2494
Sensor 0
Channel EMG,5.49034866865034,5.4905165178912,5.4905165178912,5.49034866865034,5.48984512092775,5.48984512092775,5.48984512092775,5.49018081940948,5.49018081940948,5.23202868696117,4.97018387121385,4.70431067368582,4.43642328526741,4.17256427862974,3.90803387502861,3.64820325017166,3.40247196154727,3.17016861219196,2.9519645990692,2.75927367055772,2.57665369649805,2.40947585259785,2.26915388723583,2.13269245441367,2.00328068970779,1.8891432059205,1.78306248569467,1.68436713206683,1.59775692378119,1.52356755931945,1.46616311894408,1.42050812542916,1.37854581521324,1.34531166552224,1.31174181734951,1.28757152666514,1.27145799954223,1.25400167849241,1.24242008087282,1.23990234225986,1.23688105592432,1.23772030212863,1.24191653315022,1.24628061341268,1.26407263294423,1.28606088349737,1.28891432059205,1.2919356069276,1.31241321431296,1.32651255054551,1.33893339436942,1.35538261997406
Channel ACC,-0.28125,-0.28125,-0.28125,-0.28125
Channel ACC,-0.0625,-0.0625,-0.0625,-0.09375
Channel ACC,0.90625,0.90625,0.9375,0.9375

#Frame88 #Time(ms) 2520
Sensor 0
Channel EMG,1.36612497138933,1.37753871976806,1.38878461890593,1.39935912108034,1.4111085679408,1.42554360265507,1.43897154192416,1.45139238574807,1.46414892805371,1.47522697795071,1.47791256580453,1.47069504844739,1.46717021438926,1.46347753109026,1.44669260700389,1.4295719844358,1.43393606469825,1.44904249637598,1.43645380331121,1.4111085679408,1.40573739223316,1.41228351262684,1.40305180437934,1.37586022735943,1.34531166552224,1.31979858091096,1.31442740520333,1.31526665140764,1.29294270237278,1.25803006027314,1.23570611123827,1.23654535744259,1.2452735179675,1.23302052338445,1.21623559929809,1.19424734874495,1.16319523918517,1.13617151140612,1.13382162203403,1.15899900816358,1.14892805371176,1.10360875867857,1.07339589532311,1.06063935301747,1.03747615777829,1.0106202792401,0.983764400701915,0.965972381170367,0.942305638208591,0.915617608911269,0.887418936446174,0.843778133821622
Channel ACC,-0.25,-0.25,-0.25,-0.25
Channel ACC,-0.09375,-0.125,-0.15625,-0.1875
Channel ACC,0.90625,0.90625,0.875,0.875

#Frame89 #Time(ms) 2548
Sensor 0
Channel EMG,0.813565270466163,0.805508506904707,0.783352407110704,0.736018921187152,0.671900511177233,0.619531548027771,0.604089417868314,0.598718242160677,0.594354161898222,0.601403830014496,0.632791638056001,0.644037537193866,0.613153276874952,0.544335088120851,0.456046387426566,0.399649042496376,0.425329976348516,0.474845502403296,0.512443732356756,0.510093842984665,0.484580758373388,0.489280537117571,0.517479209582666,0.565148393987945,0.647058823529412,0.741390096894789,0.806179903868162,0.852170595864805,0.920653086137179,1.00810254062715,1.09689478904402,1.21405355916686,1.38358129243915,1.56586556801709,1.74143587396048,1.96836804760815,2.22148470283055,2.40813305867094,2.48131532768749,2.42424658579385,2.33562218661784,2.27016098268101,2.17650110627909,2.01586938277256,1.88242923628595,1.82468909742885,1.88343633173114,2.00529488059815,2.08216983291371,2.05833524071107,1.92539864194705,1.68201724269474
Channel ACC,-0.25,-0.25,-0.25,-0.21875
Channel ACC,-0.21875,-0.21875,-0.25,-0.28125
Channel ACC,0.875,0.875,0.90625,0.90625

#Frame90 #Time(ms) 2575
Sensor 0
Channel EMG,1.36746776531624,0.976714732585641,0.587136644541085,0.29390402075227,0.0334019989318685,-0.234149691004807,-0.475516899366751,-0.717219806210422,-0.921324483100633,-1.04150453955901,-1.13382162203403,-1.16739147020676,-1.10428015564202,-1.02555886167697,-0.97251850156405,-0.962279697871366,-1.02236972610056,-1.17679102769512,-1.3288624399176,-1.43830014496071,-1.49536888685435,-1.45995269703212,-1.36243228809033,-1.21942473487449,-1.08917372396429,-0.972350652323186,-0.874662394140536,-0.815915159838254,-0.773785000381476,-0.718226901655604,-0.686335545891508,-0.719233997100786,-0.716716258487831,-0.611139085984588,-0.490287632562753,-0.406363012130922,-0.323109788662547,-0.220386053253986,-0.101548790722515,-0.0595864805065995,-0.028702220187686,0.0708323796444648,0.169024185549706,0.200244144350347,0.25999847409781,0.431204699778744,0.569512474250401,0.614160372320134,0.610467689021134,0.588311589227131,0.55020981155108,0.485252155336843
Channel ACC,-0.21875,-0.21875,-0.21875,-0.21875
Channel ACC,-0.28125,-0.28125,-0.25,-0.21875
Channel ACC,0.9375,0.9375,0.9375,0.96875

#Frame91 #Time(ms) 2602
Sensor 0
Channel EMG,0.352986953536278,0.266041046768902,0.125551232166018,-0.075700007629511,-0.352651255054551,-0.553566796368353,-0.613153276874952,-0.656794079499504,-0.674418249790188,-0.623559929808499,-0.697077897306783,-0.76253910124361,-0.503715571831845,-0.10087739375906,0.103562981612879,0.248920424200809,0.502037079423209,0.728297856107423,0.866941329060807,1.15967040512703,1.50896467536431,1.69645227740902,1.87537956816968,2.10365453574426,2.52294193942168,3.21112382696269,3.54010833905547,3.29303425650416,2.88784618905928,2.57396810864424,2.32957961394675,2.03147936217288,1.49738307774472,0.585626001373312,-0.308674753948272,-0.904539559014267,-1.08850232700084,-1.38341344319829,-2.17012283512627,-2.87273975738155,-3.01843289845121,-3.25409323262379,-4.13882658121614,-5.46550698100252,-5.49169146257725,-5.49286640726329,-5.49336995498589,-3.65777065690089,-1.76023498893721,-0.055893797207599,2.79938963912413,5.48044556343938
Channel ACC,-0.21875,-0.25,-0.25,-0.28125
Channel ACC,-0.21875,-0.21875,-0.21875,-0.1875
Channel ACC,0.96875,1,1,0.96875

#Frame92 #Time(ms) 2633
Sensor 0
Channel EMG,5.48783093003738,5.48883802548257,5.48917372396429,5.48917372396429,5.48917372396429,5.48984512092775,0.910246433203632,-1.31543450064851,-2.49373617151141,-2.25740444037537,-1.32013427939269,-2.15602349889372,-4.47872129396506,-5.48632028686961,-5.49219501029984,-5.24411383230335,-4.86074616617075,-4.97941557946136,-4.11985961699855,-2.07512016479744,-0.0491798275730526,0.307331960021363,-0.171374074921798,-0.198229953459983,0.171206225680934,0.824979018844892,1.44769970244907,1.86195162890059,2.01704432745861,1.78541237506676,0.946166170748455,-0.141496910048066,-0.721919584954604,-1.06919966430152,-1.6471046005951,-2.79250782024872,-2.9224231326772,-1.37586022735943,0.446982528419928,1.59641412985428,1.7159227893492,1.39096665903716,2.15736629282063,4.89565880827039,5.48581673914702,5.48783093003738,5.48850232700084,5.48850232700084,5.48850232700084,5.48883802548257,5.48917372396429,5.48917372396429
Channel ACC,-0.3125,-0.28125,-0.3125,-0.28125
Channel ACC,-0.1875,-0.15625,-0.1875,-0.1875
Channel ACC,1,1,0.9375,0.90625

#Frame93 #Time(ms) 2655
Sensor 0
Channel EMG,5.48917372396429,5.48917372396429,5.48883802548257,5.48883802548257,5.48917372396429,5.48883802548257,-1.56452277409018,-3.44611276417182,-3.43117418173495,-4.26756694895857,-5.4831311512932,-5.49202716105898,-5.49286640726329,-5.49370565346761,-5.49387350270848,-5.49387350270848,-5.49387350270848,-5.49404135194934,-5.4942092011902,-5.49437705043107,-5.4942092011902,-5.4942092011902,-5.4942092011902,-5.4942092011902,-5.4942092011902,-5.49437705043107,-5.4942092011902,-5.4942092011902,-5.49437705043107,-5.49437705043107,-5.4942092011902,-5.49437705043107,-5.49404135194934,-5.49437705043107,-5.49454489967193,-5.4942092011902,-5.49437705043107,-5.49437705043107,-5.49437705043107,-3.81924162661173,-2.31279468986038,-1.46784161135271,-1.13885709925994,-0.666361486228733,0.0199740596627756,0.309010452429999,0.539635309376669,1.71995117112993,3.7334706645304,5.41129167620356,5.48715953307393,5.48833447775997
Channel ACC,-0.28125,-0.28125,-0.28125,-0.28125
Channel ACC,-0.1875,-0.21875,-0.21875,-0.21875
Channel ACC,0.875,0.875,0.875,0.875

#Frame94 #Time(ms) 2682
Sensor 0
Channel EMG,4.91042954146639,5.00173952849622,5.45694666971847,5.13400473029679,3.52198062104219,1.82200350957504,0.490959029526207,-0.975371938658732,-2.78126192111086,-4.49953459983215,-5.47725642786297,-5.49185931181811,-5.49286640726329,-5.49320210574502,-5.49370565346761,-5.49387350270848,-5.49404135194934,-5.4942092011902,-5.49404135194934,-5.49404135194934,-5.49404135194934,-5.4942092011902,-5.4942092011902,-4.5842984664683,-2.94592202639811,-1.72498664835584,-0.996520943007553,0.112626840619516,1.73841458762493,3.09816128786145,4.25246051728084,5.44687571526665,5.48715953307393,5.48783093003738,5.48850232700084,5.48850232700084,5.48850232700084,5.48900587472343,5.48917372396429,5.48917372396429,5.48883802548257,5.48900587472343,5.48917372396429,5.48917372396429,5.48967727168688,5.48917372396429,5.48917372396429,5.48917372396429,5.48917372396429,5.48883802548257,5.48917372396429,5.48917372396429
Channel ACC,-0.28125,-0.28125,-0.25,-0.25
Channel ACC,-0.21875,-0.21875,-0.1875,-0.1875
Channel ACC,0.84375,0.8125,0.78125,0.78125

#Frame95 #Time(ms) 2709
Sensor 0
Channel EMG,5.48917372396429,5.48917372396429,5.48917372396429,5.48917372396429,5.48917372396429,5.48917372396429,5.48917372396429,5.48917372396429,5.48917372396429,5.48917372396429,5.48917372396429,5.48917372396429,5.48900587472343,5.48917372396429,5.48917372396429,5.48917372396429,5.48917372396429,5.48917372396429,5.48917372396429,5.48917372396429,5.48917372396429,5.48917372396429,5.48917372396429,5.48917372396429,1.62444495307851,2.33696498054475,2.94290074006256,2.56658274204623,2.04692149233234,1.78373388265812,1.62561989776455,1.40305180437934,1.15530632486458,0.929045548180362,0.71990539406424,0.510765239948119,0.30263218127718,0.0918135347524224,-0.106919966430152,-0.274097810330358,-0.444968337529564,-0.646723125047684,-0.850492103456168,-1.03781185626001,-1.2023041123064,-1.36192874036774,-1.51165026321813,-1.63636224917983,-1.74848554207675,-1.85322346837568,-1.95762569619287,-2.05951018539712
Channel ACC,-0.25,-0.28125,-0.3125,-0.3125
Channel ACC,-0.1875,-0.1875,-0.15625,-0.125
Channel ACC,0.84375,0.875,0.875,0.78125

#Frame96 #Time(ms) 2737
Sensor 0
Channel EMG,-2.1385671778439,-2.19328603036545,-2.25572594796674,-2.33495078965438,-2.40561532005798,-2.48719005111772,-2.57061112382696,-2.6337224383917,-2.68978408484016,-2.74567788204776,-2.8009002822919,-2.85645838101778,-2.89959563591974,-2.91805905241474,-2.91554131380179,-2.90362401770047,-2.88986037994965,-2.87441824979019,-2.84252689402609,-2.81181048294804,-2.76498054474708,-2.71294728007935,-2.6595712214847,-2.6078736552987,-2.54308384832532,-2.49726100556954,-2.43347829404135,-2.36617074845502,-2.34905012588693,-2.25539024948501,-2.19429312581064,-2.16777294575418,-2.10952925917449,-2.01469443808652,-1.887296864271,-1.79011215381094,-1.67916380560006,-1.63300526436255,-1.60010681315328,-1.54203097581445,-1.51786068513008,-1.54790569924468,-1.56183718623636,-1.53296711680781,-1.53330281528954,-1.50644693675135,-1.40909437705043,-1.29596398870832,-1.21539635309377,-1.13012893873503,-1.01532005798428,-0.877012283512627
Channel ACC,-0.3125,-0.3125,-0.3125,-0.3125
Channel ACC,-0.125,-0.125,-0.125,-0.125
Channel ACC,0.75,0.75,0.75,0.6875

#Frame97 #Time(ms) 2764
Sensor 0
Channel EMG,-0.787380788891432,-0.686503395132372,-0.68734264133669,-0.712520027466239,-0.588815136949722,-0.468131532768749,-0.409048599984741,-0.253284504463264,-0.0302128633554589,0.0622720683604181,0.126726176852064,0.273426413366903,0.389242389562829,0.397131303883421,0.320592050049592,0.249088273441672,0.213000686655985,0.16600289921416,0.0105745021744106,-0.227939269092851,-0.36221866178378,-0.423147936217288,-0.513786526283665,-0.638162813763638,-0.920988784618906,-1.26659037155718,-1.50225070572976,-1.67295338368811,-1.84936293583581,-1.94402990768292,-1.99186694132906,-2.03685053788052,-2.09878690775921,-2.1348744945449,-1.95141527428092,-1.66623941405356,-1.40204470893416,-1.21086442359045,-1.18954757000076,-1.2378881513695,-1.30804913405051,-1.38643472953384,-1.22647440299077,-0.877012283512627,-0.605096513313497,-0.661829556725414,-1.09336995498589,-1.50225070572976,-1.60346379797055,-1.46884870679789,-0.828000305180438,1.07121385519188
Channel ACC,-0.3125,-0.28125,-0.28125,-0.25
Channel ACC,-0.15625,-0.1875,-0.25,-0.25
Channel ACC,0.65625,0.6875,0.6875,0.71875

#Frame98 #Time(ms) 2790
Sensor 0
Channel EMG,5.09506370641642,5.48615243762875,5.48783093003738,5.48850232700084,5.48917372396429,5.48917372396429,5.48917372396429,5.48917372396429,5.48917372396429,5.48917372396429,5.48917372396429,5.48917372396429,5.48984512092775,5.48917372396429,5.48917372396429,5.48917372396429,5.48917372396429,5.48917372396429,5.48984512092775,0.289204242008087,-5.46987106126497,-5.49118791485466,-5.49286640726329,-5.49336995498589,-5.49353780422675,-5.49370565346761,-5.49404135194934,-5.49404135194934,-5.4942092011902,-5.4942092011902,-5.4942092011902,-5.49437705043107,-5.4942092011902,-5.49404135194934,-5.49437705043107,-5.49454489967193,-5.49437705043107,-5.49437705043107,-5.49437705043107,-5.49437705043107,-5.49437705043107,-5.49437705043107,-5.4942092011902,-5.4942092011902,-5.49437705043107,-5.49454489967193,-5.49437705043107,-5.49437705043107,-5.49437705043107,-5.49437705043107,-5.49454489967193,-5.49454489967193
Channel ACC,-0.25,-0.1875,-0.15625,-0.15625
Channel ACC,-0.3125,-0.34375,-0.375,-0.375
Channel ACC,0.75,0.84375,0.9375,0.96875

#Frame99 #Time(ms) 2818
Sensor 0
Channel EMG,-5.49454489967193,-5.49471274891279,-5.49437705043107,-5.49454489967193,-5.49437705043107,-5.49437705043107,-5.4942092011902,-5.49437705043107,-5.49437705043107,-5.49437705043107,-5.49437705043107,-4.89800869764248,-3.95167467765316,-2.80543221179522,-1.66892500190738,-0.635309376668955,0.580590524147402,1.77869840543221,2.78747234302281,3.70057221332113,5.42874799725338,5.48648813611048,5.48850232700084,5.48917372396429,5.48984512092775,5.04000915541314,5.48783093003738,5.48984512092775,5.48917372396429,5.48917372396429,5.48917372396429,5.48984512092775,5.48984512092775,5.48984512092775,5.48984512092775,5.48984512092775,5.48984512092775,5.48984512092775,5.48984512092775,5.48984512092775,5.48984512092775,5.48917372396429,5.48917372396429,5.48984512092775,5.4905165178912,5.48984512092775,5.49018081940948,5.48984512092775,5.48984512092775,5.48984512092775,5.49018081940948,5.48984512092775
Channel ACC,-0.375,0.0625,-0.15625,-0.15625
Channel ACC,-0.21875,-0.40625,-0.3125,-0.28125
Channel ACC,0.40625,1.125,1.28125,0.96875

#Frame100 #Time(ms) 2844
Sensor 0
Channel EMG,5.48984512092775,5.48950942244602,5.48984512092775,5.48984512092775,5.48984512092775,5.48984512092775,5.48984512092775,5.4905165178912,5.48984512092775,5.48984512092775,5.49018081940948,5.49018081940948,5.49018081940948,5.49034866865034,5.49018081940948,5.49018081940948,1.25131609063859,1.52591744869154,1.87638666361486,1.31006332494087,0.629938200961318,0.121355001144427,-0.342748149843595,-0.824643320363165,-1.27716487373159,-1.68990615701534,-2.05699244678416,-2.37238117036698,-2.65722133211261,-2.93014419775692,-3.18712138551919,-3.41774624246586,-3.61597619592584,-3.78483253223468,-3.93287556267643,-4.05221637293049,-4.14151216906996,-4.22191195544366,-4.30130464637217,-4.35971618219272,-4.38623636224918,-4.38623636224918,-4.36643015182727,-4.33739223315785,-4.29945830472267,-4.24960708018616,-4.1972381170367,-4.1450370031281,-4.08209353780423,-4.01428244449531,-3.92716868848707,-3.81219195849546
Channel ACC,-0.125,-0.09375,-0.0625,-0.0625
Channel ACC,-0.28125,-0.3125,-0.34375,-0.34375
Channel ACC,0.90625,0.90625,0.9375,1

#Frame101 #Time(ms) 2872
Sensor 0
Channel EMG,-3.74219882505531,-3.67153429465171,-3.56696421759365,-3.46709391927977,-3.36403448538949,-3.25879301136797,-3.15640497444114,-3.04579232471199,-2.93987945372702,-2.83077744716564,-2.71982909895476,-2.61358052948806,-2.50313572899977,-2.39034103913939,-2.2817425803006,-2.17347981994354,-2.06588845654993,-1.96333257038224,-1.87235828183413,-1.78121614404517,-1.68957045853361,-1.59977111467155,-1.51047531853208,-1.4295719844358,-1.35605401693751,-1.28270389868009,-1.21002517738613,-1.13617151140612,-1.06366063935302,-0.988799877927825,-0.922667277027543,-0.860227359426261,-0.79510185397116,-0.737529564354925,-0.688349736781872,-0.637994964522774,-0.580926222629129,-0.527214465552758,-0.489616235599298,-0.455374990463111,-0.42046234836347,-0.38789959563592,-0.357351033798734,-0.33150225070573,-0.305653467612726,-0.278126192111086,-0.252613107499809,-0.233310444800488,-0.221728847180896,-0.20494392309453,-0.190341039139391,-0.181445029373617
Channel ACC,-0.09375,-0.09375,-0.09375,-0.125
Channel ACC,-0.28125,-0.28125,-0.28125,-0.28125
Channel ACC,0.96875,0.9375,0.9375,0.96875

#Frame102 #Time(ms) 2899
Sensor 0
Channel EMG,-0.172213321126116,-0.166674296177615,-0.155260547798886,-0.143175402456703,-0.137132829785611,-0.132768749523156,-0.127061875333791,-0.125047684443427,-0.123033493553063,-0.120515754940108,-0.120012207217517,-0.11783016708629,-0.114305333028153,-0.10591287098497,-0.0971847104600595,-0.0943312733653773,-0.0956740672922866,-0.100205996795605,-0.102555886167697,-0.0988632028686961,-0.0971847104600595,-0.0955062180514229,-0.0941634241245136,-0.0985275043869688,-0.104234378576333,-0.107591363393606,-0.108262760357061,-0.103562981612879,-0.0985275043869688,-0.0948348210879683,-0.0955062180514229,-0.10087739375906,-0.106248569466697,-0.102220187685969,-0.0998702983138781,-0.104234378576333,-0.106248569466697,-0.104905775539788,-0.105577172503243,-0.108934157320516,-0.113298237582971,-0.112962539101244,-0.113633936064698,-0.117158770122835,-0.120515754940108,-0.125047684443427,-0.131258106355383,-0.126054779888609,-0.119844357976654,-0.1247119859617,-0.133272297245747,-0.134782940413519
Channel ACC,-0.125,-0.125,-0.125,-0.125
Channel ACC,-0.3125,-0.3125,-0.34375,-0.34375
Channel ACC,0.96875,0.9375,0.9375,0.9375

#Frame103 #Time(ms) 2926
Sensor 0
Channel EMG,-0.137132829785611,-0.137804226749065,-0.130418860151064,-0.120683604180972,-0.120012207217517,-0.12974746318761,-0.142504005493248,-0.151903562981613,-0.155260547798886,-0.155931944762341,-0.153414206149386,-0.150225070572976,-0.151903562981613,-0.157778286411841,-0.163653009842069,-0.168352788586252,-0.169527733272297,-0.170702677958343,-0.17607385366598,-0.179766536964981,-0.183627069504845,-0.187319752803845,-0.190508888380255,-0.190173189898527,-0.188158999008164,-0.18480201419089,-0.18110933089189,-0.179598687724117,-0.178759441519799,-0.176745250629435,-0.177584496833753,-0.180773632410163,-0.182116426337072,-0.180102235446708,-0.186984054322118,-0.19487296864271,-0.194369420920119,-0.187487602044709,-0.182452124818799,-0.182116426337072,-0.185137712672618,-0.188158999008164,-0.186816205081254,-0.185809109636072,-0.188830395971618,-0.187487602044709,-0.185641260395209,-0.188158999008164,-0.19487296864271,-0.203265430685893,-0.203936827649348,-0.204272526131075
Channel ACC,-0.15625,-0.15625,-0.15625,-0.15625
Channel ACC,-0.3125,-0.3125,-0.3125,-0.3125
Channel ACC,0.9375,0.9375,0.90625,0.90625

#Frame104 #Time(ms) 2953
Sensor 0
Channel EMG,-0.208300907911803,-0.208468757152666,-0.208804455634394,-0.206958113984894,-0.200915541313802,-0.200244144350347,-0.200915541313802,-0.194537270160983,-0.190173189898527,-0.189501792935073,-0.18480201419089,-0.176409552147707,-0.171374074921798,-0.16734569314107,-0.168688487067979,-0.175402456702525,-0.183459220263981,-0.193698023956664,-0.197726405737392,-0.197558556496529,-0.201586938277256,-0.20494392309453,-0.199740596627756,-0.191180285343709,-0.184130617227436,-0.176409552147707,-0.174059662775616,-0.174059662775616,-0.170870527199207,-0.171541924162661,-0.175066758220798,-0.176409552147707,-0.176913099870298,-0.178423743038071,-0.174731059739071,-0.171374074921798,-0.173052567330434,-0.173052567330434,-0.172381170366979,-0.171709773403525,-0.168688487067979,-0.166674296177615,-0.164827954528115,-0.162981612878614,-0.164324406805524,-0.165331502250706,-0.164324406805524,-0.160631723506523,-0.161303120469978,-0.161303120469978,-0.157778286411841,-0.154589150835431
Channel ACC,-0.1875,-0.1875,-0.1875,-0.1875
Channel ACC,-0.28125,-0.28125,-0.28125,-0.28125
Channel ACC,0.875,0.875,0.875,0.875

#Frame105 #Time(ms) 2980
Sensor 0
Channel EMG,-0.15542839703975,-0.160631723506523,-0.167009994659342,-0.171709773403525,-0.168017090104524,-0.158617532616159,-0.149217975127794,-0.149889372091249,-0.152574959945068,-0.151903562981613,-0.146532387273976,-0.142839703974975,-0.142504005493248,-0.144518196383612,-0.149553673609522,-0.151903562981613,-0.151903562981613,-0.147875181200885,-0.145189593347066,-0.145189593347066,-0.142839703974975,-0.137972075989929,-0.135118638895247,-0.132433051041428,-0.130754558632792,-0.134279392690929,-0.13847562371252,-0.138139925230793,-0.134447241931792,-0.134447241931792,-0.133104448004883,-0.134447241931792,-0.135790035858701,-0.137132829785611,-0.140489814602884,-0.144686045624475,-0.144518196383612,-0.143175402456703,-0.141161211566339,-0.140489814602884,-0.142504005493248,-0.142504005493248,-0.140154116121157,-0.134782940413519,-0.130418860151064,-0.125719081406882,-0.122362096589609,-0.125383382925154,-0.131761654077974,-0.133943694209201,-0.135790035858701,-0.13847562371252
Channel ACC,-0.1875,-0.21875,-0.1875,-0.1875
Channel ACC,-0.28125,-0.25,-0.25,-0.25
Channel ACC,0.875,0.875,0.875,0.875

#Frame106 #Time(ms) 3006
Sensor 0
Channel EMG,-0.136461432822156,-0.1284046692607,-0.11967650873579,-0.114976729991608,-0.118333714808881,-0.123033493553063,-0.11967650873579,-0.111955443656062,-0.110276951247425,-0.111619745174334,-0.113466086823835,-0.111619745174334,-0.108934157320516,-0.106248569466697,-0.113633936064698,-0.123201342793927,-0.127901121538109,-0.130418860151064,-0.132097352559701,-0.129915312428473,-0.127397573815518,-0.12974746318761,-0.132097352559701,-0.131929503318837,-0.125383382925154,-0.117326619363699,-0.111619745174334,-0.108934157320516,-0.104234378576333,-0.0955062180514229,-0.0941634241245136,-0.100205996795605,-0.102891584649424,-0.0985275043869688,-0.0941634241245136,-0.0884565499351492,-0.0871137560082399,-0.0897993438620584,-0.0904707408255131,-0.0864423590447852,-0.0842603189135576,-0.0850995651178759,-0.0864423590447852,-0.0901350423437857,-0.0901350423437857,-0.0881208514534218,-0.0847638666361486,-0.0793926909285115,-0.0767071030746929,-0.0713359273670558,-0.0632791638056001,-0.0632791638056001
Channel ACC,-0.1875,-0.1875,-0.15625,-0.15625
Channel ACC,-0.25,-0.25,-0.28125,-0.28125
Channel ACC,0.875,0.875,0.875,0.90625

#Frame107 #Time(ms) 3033
Sensor 0
Channel EMG,-0.0753643091477836,-0.0827496757457847,-0.0800640878919661,-0.0763714045929656,-0.0753643091477836,-0.0763714045929656,-0.0814068818188754,-0.0820782787823301,-0.0783855954833295,-0.0787212939650568,-0.0820782787823301,-0.0881208514534218,-0.0921492332341497,-0.0887922484168765,-0.0837567711909667,-0.0797283894102388,-0.0783855954833295,-0.0800640878919661,-0.0793926909285115,-0.074692912184329,-0.0713359273670558,-0.0679789425497826,-0.0679789425497826,-0.0693217364766918,-0.0639505607690547,-0.0592507820248722,-0.0599221789883268,-0.064286259250782,-0.0641184100099183,-0.0595864805065995,-0.054886701762417,-0.0532082093537804,-0.0488441290913252,-0.0428015564202335,-0.0377660791943236,-0.038101777676051,-0.0374303807125963,-0.0347447928587777,-0.0347447928587777,-0.0344090943770504,-0.0347447928587777,-0.0377660791943236,-0.036591134508278,-0.0292057679102769,-0.0209811551079576,-0.0194705119401846,-0.0203097581445029,-0.0189669642175937,-0.0132600900282292,-0.00486762798504616,-0.00184634164950027,-0.00386053253986419
Channel ACC,-0.15625,-0.15625,-0.15625,-0.15625
Channel ACC,-0.28125,-0.28125,-0.28125,-0.3125
Channel ACC,0.90625,0.90625,0.90625,0.90625

#Frame108 #Time(ms) 3061
Sensor 0
